,theta i [rad],r orb [AU],v orb [km s-1],ang orb [rad],r L1 [AU],v i [km s-1],ang i [rad],a p [AU],e p,theta p i [rad],flag impact,v imp [km s-1],ang imp [rad]
0,0.0,0.72,65.8647800854,1.57079632679,0.338018021561,12.5771941872,1.57079632679,0.174259222777,0.939742506452,3.14159265359,0.0,0.0,0.0
1,0.0314749859677,0.720133754892,65.8571337212,1.582599142,0.337359960797,12.5889794796,1.63257863737,0.173919563151,0.939984087094,3.14554283758,0.0,0.0,0.0
2,0.0629266069621,0.720534787863,65.834219574,1.59439137019,0.337547832098,12.6242228545,1.69414354102,0.174049757426,0.940322322759,3.14946476728,0.0,0.0,0.0
3,0.0943316160532,0.721202405401,65.7961122333,1.60616247888,0.337860589864,12.6825904358,1.75527908953,0.174266608357,0.940882519809,3.15333050444,0.0,0.0,0.0
4,0.125667001323,0.722135457005,65.7429351961,1.61790204407,0.33829769512,12.7635376041,1.81578390385,0.174569907694,0.94165944439,3.15711273495,0.0,0.0,0.0
5,0.156910100038,0.723332343149,65.6748596535,1.62959980291,0.338858398539,12.8663258687,1.87547162787,0.174959365969,0.942645886763,3.16078506143,0.0,0.0,0.0
6,0.188038707145,0.72479102621,65.5921028299,1.6412457038,0.339541745558,12.9900448181,1.9341744895,0.175434614522,0.943832774753,3.16432227317,0.0,0.0,0.0
7,0.219031179626,0.726509044281,65.4949258994,1.65282995445,0.340346582853,13.1336377418,1.99174583644,0.175995208074,0.945209313923,3.16770058777,0.0,0.0,0.0
8,0.249866532686,0.728483527578,65.3836315269,1.66434306618,0.340542353285,13.2959293986,2.04806160271,0.176249937526,0.946875989048,3.1708317378,0.0,0.0,0.0
9,0.280524528553,0.730711217237,65.2585610748,1.67577589477,0.341583725729,13.4756544656,2.10302076123,0.176977561983,0.948589524727,3.17382100332,0.0,0.0,0.0
10,0.310985756371,0.733188486233,65.1200915284,1.68711967715,0.342741768392,13.6714853648,2.15654488301,0.177788531701,0.950451390566,3.17659102298,0.0,0.0,0.0
11,0.341231702646,0.735911362106,64.9686321926,1.6983660637,0.344014624281,13.8820584098,2.20857697036,0.17868213033,0.952445731253,3.17912547035,0.0,0.0,0.0
12,0.371244811781,0.738875551209,64.8046212174,1.70950714589,0.344660671094,14.1059975003,2.25907975098,0.179257414568,0.954651538633,3.18132081399,0.0,0.0,0.0
13,0.401008536433,0.742076464141,64.6285220061,1.72053547926,0.346153789639,14.3419348743,2.30803361832,0.180310924772,0.956855483445,3.1833391734,0.0,0.0,0.0
14,0.430507377601,0.745509242068,64.4408195624,1.73144410153,0.347008809938,14.588528683,2.3554343857,0.181038083975,0.959226039665,3.18498888607,0.0,0.0,0.0
15,0.459726914558,0.749168783614,64.2420168278,1.74222654606,0.348712200147,14.8444773658,2.4012909945,0.182247085412,0.961569042016,3.18645345276,0.0,0.0,0.0
16,0.488653824858,0.753049772012,64.0326310591,1.75287685067,0.349764862649,15.1085309606,2.44562328535,0.18312061704,0.964032830005,3.18753057768,0.0,0.0,0.0
17,0.51727589485,0.757146702257,63.8131902898,1.76338956208,0.351667741161,15.3794995954,2.48845991003,0.184480379721,0.966444211757,3.18841969791,0.0,0.0,0.0
18,0.545582021189,0.761453907973,63.584229915,1.77375973615,0.35290606904,15.6562594725,2.52983643383,0.185494522663,0.968931299291,3.18891264341,0.0,0.0,0.0
19,0.573562203887,0.765965587754,63.3462894347,1.78398293424,0.354997067778,15.9377566823,2.56979365471,0.187000087873,0.971342908169,3.1892190735,0.0,0.0,0.0
20,0.601207532231,0.770675830866,63.0999093793,1.7940552162,0.356408646093,16.2230091985,2.60837614843,0.188148902656,0.973787327747,3.18912963325,0.0,0.0,0.0
21,0.628510162702,0.775578641858,62.8456284516,1.80397312986,0.358676012137,16.5111073605,2.64563103253,0.189795161187,0.976135660012,3.18885842621,1.0,614.04657222,1.41056306071
22,0.655463291897,0.780667964281,62.5839808857,1.81373369798,0.36024818331,16.8012131671,2.68160693853,0.19107260594,0.97847721583,3.18819947616,1.0,614.07202379,1.2260953542
23,0.682061123574,0.785937703122,62.3154940473,1.8233344027,0.361893240276,17.0925586251,2.71635317117,0.192409530223,0.980744551578,3.187264451,1.0,614.098297387,1.10575989229
24,0.708298831212,0.791381745934,62.0406862775,1.83277316787,0.364400006736,17.3844433898,2.74991903384,0.194254371095,0.982890460137,3.18615876636,1.0,614.13395706,1.01025698003
25,0.734172517337,0.796993982685,61.7600649765,1.84204833985,0.366186428087,17.6762318936,2.7823532987,0.195710608212,0.984978202748,3.18468970233,1.0,614.161629048,0.922255368772
26,0.759679168909,0.802768323981,61.4741249411,1.85115866671,0.368035931929,17.9673501079,2.8137037983,0.197221370642,0.98695804086,3.18296664151,1.0,614.189903975,0.841719824282
27,0.784816611473,0.808698718037,61.1833469297,1.8601032767,0.370754771245,18.2572820911,2.84401712113,0.199252496114,0.988798085657,3.18108539481,1.0,614.227240119,0.768433073754
28,0.809583461135,0.814779166055,60.8881964618,1.86888165584,0.372726809316,18.5455664083,2.87333839143,0.200873388188,0.990539310048,3.17887573097,1.0,614.25649207,0.696525225099
29,0.833979076106,0.821003736281,60.5891228304,1.87749362536,0.374752459831,18.8317925209,2.90171111871,0.20254396747,0.992147960902,3.17643838461,1.0,614.28614936,0.627480649288
30,0.858003506956,0.827366576402,60.2865583295,1.88593931857,0.376828624521,19.1155971917,2.9291771018,0.204262592605,0.993617844827,3.17378273274,1.0,614.316151899,0.560630979465
31,0.88165744778,0.833861924764,59.9809176637,1.89421915821,0.378952269753,19.3966609758,2.95577637808,0.206027645674,0.994943688158,3.17091822057,1.0,614.346442446,0.495479502
32,0.904942187858,0.840484120249,59.6725975338,1.90233383397,0.381961755989,19.6747048228,2.98154720698,0.208338034259,0.996113295459,3.16791248306,1.0,614.385313849,0.432651147883
33,0.927859563376,0.847227610639,59.3619763936,1.91028428026,0.384178289556,19.9494868073,3.00652607914,0.210198343898,0.997140777053,3.16465136607,1.0,614.415990083,0.369651848543
34,0.950411911243,0.854086960003,59.0494143405,1.9180716548,0.386433743318,20.2207990245,3.03074774647,0.212100576112,0.998013162799,3.16120906183,1.0,614.446799631,0.307400702967
35,0.972602024307,0.861056854932,58.7352531363,1.92569731798,0.388725370605,20.4884646526,3.05424526689,0.214043218868,0.998728407151,3.15759468806,1.0,614.477696946,0.245668400894
36,0.994433107457,0.868132109447,58.4198163535,1.9331628127,0.391050503421,20.7523351774,3.07705005857,0.216024789322,0.999285150369,3.15381716467,1.0,614.508639327,0.184248924701
37,1.01590873644,0.875307669178,58.1034096088,1.94046984538,0.393406553688,21.012287802,3.09919196228,0.218043834386,0.999682667727,3.14988518361,1.0,614.539586858,0.122950667556
38,1.03703281859,0.882578614615,57.7863208831,1.94762026798,0.395791014042,21.2682230295,3.1206993081,0.220098931119,0.999920819181,3.14580718486,1.0,614.570502344,0.0615892177361
39,1.0578095548,0.889940163231,57.4688209269,1.95461606059,0.398201458109,21.5200624055,3.14159898367,0.222188686869,0.999999999993,3.14159133805,1.0,614.601351222,-1.89839916391e-05
40,1.07824340462,0.897387671167,57.1511637113,1.96145931545,0.400635540575,21.7677464365,3.16191650432,0.224311739381,0.999921092753,3.13724552864,1.0,614.632101478,-0.0620627359175
41,1.09833905279,0.904916634014,56.8335869378,1.96815222172,0.403090996833,22.0112326609,3.1816760822,0.226466756718,0.999685421106,3.13277734847,1.0,614.66272355,-0.124742467297
42,1.11810137852,0.912522687132,56.5163125797,1.97469705142,0.405565642436,22.2504938752,3.20090069462,0.228652437122,0.999294705423,3.12819408985,1.0,614.693190225,-0.188277541043
43,1.13753542602,0.920201605146,56.1995474655,1.98109614616,0.408057372165,22.4855164958,3.21961214987,0.230867508682,0.998751020621,3.12350274301,1.0,614.723476533,-0.25291522059
44,1.15664637788,0.927949301184,55.8834838732,1.98735190496,0.410564159003,22.7162990633,3.23783115127,0.233110729008,0.998056756244,3.11870999598,1.0,614.753559645,-0.318942391221
45,1.17543953035,0.93576182567,55.56830014,1.99346677311,0.4130840529,22.9428508741,3.2555773587,0.235380884818,0.997214578873,3.11382223691,1.0,614.783418761,-0.386701711815
46,1.19392026998,0.943635364477,55.2541612901,1.99944323168,0.415615179283,23.1651907222,3.27286944655,0.237676791373,0.99622739694,3.10884555825,1.0,614.813035004,-0.456614977059
47,1.21209405275,0.951566237015,54.9412196542,2.00528378804,0.418155737528,23.3833457606,3.28972515962,0.23999729196,0.995098327893,3.1037857625,1.0,614.842391313,-0.529218592782
48,1.22996638499,0.959550894019,54.6296154876,2.01099096736,0.420703999327,23.5973504644,3.30616136585,0.242341257309,0.993830667702,3.09864836911,1.0,614.871472341,-0.605220356639
49,1.24754280535,0.967585914829,54.3194775918,2.01656730455,0.423258306841,23.8072456822,3.32219410582,0.244707584891,0.9924278627,3.09343862259,1.0,614.900264345,-0.685596136169
50,1.26482886904,0.975668004751,54.010923915,2.02201533719,0.425817070903,24.0130777841,3.33783863986,0.247095198278,0.990893483616,3.08816150122,1.0,614.928755093,-0.771767709378
51,1.28183013355,0.983793992234,53.7040621408,2.02733759919,0.428378769158,24.214897889,3.35310949243,0.249503046481,0.989231201734,3.08282172637,1.0,614.956933765,-0.865965201555
52,1.29855214518,0.991960825641,53.398990272,2.03253661489,0.430941944046,24.4127611614,3.36802049345,0.251930103165,0.987444767165,3.07742377234,1.0,614.984790858,-0.972081871544
53,1.31500042753,1.00016557021,53.0957971858,2.03761489392,0.43350520088,24.6067261831,3.38258481754,0.25437536596,0.985537989007,3.07197187635,1.0,615.012318097,-1.09821618391
54,1.33118047122,1.0084054049,52.7945631714,2.04257492669,0.436067205911,24.7968543888,3.39681502095,0.256837855768,0.983514717335,3.06647004859,1.0,615.039508352,-1.26866426445
55,1.34709772414,1.01667761897,52.495360458,2.04741918022,0.438626684255,24.9832095511,3.41072307567,0.259316615946,0.981378827003,3.06092208263,0.0,0.0,0.0
56,1.3627575835,1.02497960875,52.1982537107,2.05215009457,0.440156412373,25.1658573279,3.42432040208,0.261088391902,0.979174101654,3.05553618528,0.0,0.0,0.0
57,1.37816538843,1.03330887428,51.9033005118,2.05677007976,0.442698900906,25.344864852,3.43761789918,0.263585535614,0.97682903106,3.04992085728,0.0,0.0,0.0
58,1.39332641381,1.04166301611,51.6105518152,2.06128151305,0.445235347046,25.5203003692,3.45062597328,0.266096048445,0.974383150872,3.04426980899,0.0,0.0,0.0
59,1.40824586445,1.0500397318,51.3200523896,2.06568673653,0.44776469427,25.6922329098,3.46335456446,0.268619057755,0.971840294878,3.03858606549,0.0,0.0,0.0
60,1.42292887054,1.05843681278,51.0318412305,2.0699880552,0.4502859352,25.8607320023,3.4758131718,0.271153709808,0.9692042627,3.0328724844,0.0,0.0,0.0
61,1.43738048371,1.06685214113,50.7459519521,2.07418773531,0.452798109791,26.02586742,3.48801087708,0.273699169128,0.966478811693,3.02713176481,0.0,0.0,0.0
62,1.45160567332,1.07528368629,50.4624131681,2.0782880029,0.455300303452,26.1877089519,3.4999563666,0.276254617752,0.96366764996,3.02136645617,0.0,0.0,0.0
63,1.46560932382,1.08372950197,50.181248842,2.08229104273,0.457791645329,26.3463262057,3.5116579521,0.278819254621,0.960774430202,3.01557896663,0.0,0.0,0.0
64,1.47939623264,1.09218772319,49.9024786184,2.08619899744,0.459178025634,26.5017884369,3.5231235904,0.280575470592,0.957882418653,3.01009750682,0.0,0.0,0.0
65,1.49297110798,1.10065656312,49.626118146,2.09001396677,0.461636740561,26.6541643916,3.53436090146,0.283143569689,0.954841379172,3.00428856486,0.0,0.0,0.0
66,1.50633856776,1.10913431021,49.3521793697,2.09373800717,0.464082227778,26.8035221786,3.54537718582,0.285718401566,0.951728970446,2.99846412805,0.0,0.0,0.0
67,1.51950313845,1.11761932537,49.0806708131,2.09737313143,0.466513776345,26.9499291534,3.55617944074,0.288299228026,0.948548571159,2.9926261167,0.0,0.0,0.0
68,1.53246925468,1.12611003925,48.8115978376,2.10092130864,0.468930710933,27.0934518228,3.56677437556,0.290885324853,0.945303485508,2.98677634681,0.0,0.0,0.0
69,1.54524125859,1.13460494936,48.5449628957,2.10438446404,0.471332390277,27.2341557583,3.57716842591,0.293475981204,0.941996941231,2.98091653668,0.0,0.0,0.0
70,1.55782340002,1.14310261764,48.280765758,2.1077644792,0.472573958958,27.3721055277,3.58736776736,0.295177116148,0.938746983606,2.97547486431,0.0,0.0,0.0
71,1.57021983662,1.1516016678,48.0190037329,2.11106319224,0.474934825879,27.5073646358,3.59737832811,0.297761410271,0.935333058373,2.96961735173,0.0,0.0,0.0
72,1.58243463446,1.16010078303,47.7596718659,2.11428239815,0.477278704456,27.6399954775,3.60720580116,0.300348069062,0.931866957248,2.96375465714,0.0,0.0,0.0
73,1.59447176838,1.16859870344,47.5027631358,2.11742384913,0.479605077421,27.7700592963,3.61685565541,0.30293643193,0.928351584204,2.95788816565,0.0,0.0,0.0
74,1.60633512298,1.17709422389,47.2482686276,2.12048925514,0.481913454967,27.897616155,3.62633314657,0.305525849367,0.924789762813,2.95201919194,0.0,0.0,0.0
75,1.61802849347,1.18558619174,46.9961777011,2.12348028435,0.483016600593,28.0227249122,3.63564332715,0.307155222089,0.921330872507,2.94666561223,0.0,0.0,0.0
76,1.62955558694,1.19407350481,46.7464781417,2.12639856382,0.48527912604,28.1454432062,3.64479105613,0.309730813582,0.917690790081,2.94081409128,0.0,0.0,0.0
77,1.64092002325,1.20255510917,46.4991563103,2.12924568004,0.487522345527,28.2658274418,3.65378100784,0.312305444721,0.914012294445,2.93496388779,0.0,0.0,0.0
78,1.65212533655,1.21102999728,46.2541972738,2.13202317965,0.489745868744,28.383932786,3.66261768058,0.314878508034,0.910297885885,2.92911607893,0.0,0.0,0.0
79,1.66317497651,1.21949720603,46.0115849317,2.13473257014,0.491949327338,28.4998131657,3.67130540463,0.317449405262,0.906549987144,2.92327169204,0.0,0.0,0.0
80,1.67407230996,1.22795581502,45.7713021299,2.13737532061,0.492903189008,28.6135212716,3.67984835002,0.318987186262,0.902950740617,2.91804409598,0.0,0.0,0.0
81,1.68482062208,1.23640494465,45.5333307732,2.13995286244,0.495057038899,28.7251085615,3.6882505336,0.321537386037,0.899149503383,2.91222934182,0.0,0.0,0.0
82,1.69542311816,1.24484375449,45.2976519224,2.14246659015,0.497189851903,28.8346252711,3.69651582595,0.324083558261,0.89532161081,2.90642106241,0.0,0.0,0.0
83,1.70588292508,1.25327144169,45.0642458893,2.14491786212,0.499301339146,28.9421204247,3.70464795789,0.32662514039,0.891469182437,2.90062011885,0.0,0.0,0.0
84,1.71620309302,1.26168723944,44.8330923196,2.14730800141,0.501391229308,29.04764185,3.71265052669,0.329161577733,0.887594266462,2.89482733764,0.0,0.0,0.0
85,1.7263865969,1.27009041535,44.6041702786,2.14963829655,0.503459267776,29.1512361917,3.72034224494,0.331692323141,0.883768905496,2.88910576283,0.0,0.0,0.0
86,1.73643633814,1.27848027015,44.3774583211,2.15191000232,0.504225455935,29.2529489303,3.71713192796,0.333098919534,0.884273817729,2.88779283862,0.0,0.0,0.0
87,1.74635514626,1.2868561362,44.1529345614,2.15412434057,0.506240706283,29.3528244002,3.71392639225,0.335601433979,0.884594720443,2.88582462903,0.0,0.0,0.0
88,1.75614578049,1.29521737626,43.9305767373,2.15628250099,0.508233448998,29.4509058095,3.710724899,0.33809655215,0.884944720762,2.88391524217,0.0,0.0,0.0
89,1.76581093153,1.30356338221,43.710362266,2.15838564193,0.510203489997,29.5472352614,3.70752675389,0.340583757185,0.88532324357,2.88206511172,0.0,0.0,0.0
90,1.77535322297,1.31189357376,43.492268302,2.16043489116,0.512150648483,29.6418537738,3.7043313042,0.343062538806,0.885729705382,2.88027463229,0.0,0.0,0.0
91,1.78477521305,1.32020739733,43.2762717845,2.16243134663,0.512753227475,29.7348013032,3.70113793608,0.344339373984,0.886367978986,2.8792983005,0.0,0.0,0.0
92,1.79407939624,1.32850432497,43.062349484,2.16437607727,0.514645823676,29.8261167663,3.69794607195,0.346784120698,0.88682676127,2.87763439318,0.0,0.0,0.0
93,1.80326820476,1.33678385321,42.8504780446,2.16627012372,0.51651508652,29.9158380627,3.69475516817,0.349218856986,0.887311650174,2.87603092776,0.0,0.0,0.0
94,1.81234401024,1.34504550215,42.6406340214,2.16811449908,0.518360883313,30.0040020988,3.69156471282,0.351643099813,0.887822041485,2.87448815015,0.0,0.0,0.0
95,1.82130912514,1.35328881434,42.4327939188,2.16991018965,0.520183091906,30.0906448098,3.68837422363,0.354056372071,0.888357327636,2.87300627188,0.0,0.0,0.0
96,1.83016580435,1.36151335392,42.2269342215,2.17165815559,0.521981600267,30.1758011832,3.68518324611,0.356458202509,0.888916898573,2.87158547104,0.0,0.0,0.0
97,1.83891624663,1.36971870572,42.0230314246,2.17335933173,0.522385216225,30.2595052823,3.6819913517,0.357562134555,0.889693888623,2.87101458868,0.0,0.0,0.0
98,1.84756259609,1.37790447435,41.8210620616,2.17501462815,0.524127832219,30.3417902684,3.67879813615,0.359923544597,0.890298197789,2.86972156787,0.0,0.0,0.0
99,1.85610694367,1.38607028345,41.6210027274,2.17662493093,0.525846488056,30.4226884248,3.67560321795,0.362272054076,0.890924924225,2.86848979471,0.0,0.0,0.0
100,1.86455132842,1.39421577479,41.4228301043,2.17819110275,0.527541108128,30.5022311779,3.67240623691,0.364607216678,0.89157345751,2.86731932245,0.0,0.0,0.0
101,1.87289773898,1.40234060761,41.2265209805,2.17971398358,0.529211624848,30.5804491202,3.66920685277,0.366928591574,0.89224318829,2.86621017571,0.0,0.0,0.0
102,1.88114811491,1.41044445782,41.0320522696,2.18119439131,0.530857978281,30.6573720324,3.66600474395,0.369235743343,0.892933508867,2.8651623515,0.0,0.0,0.0
103,1.88930434795,1.41852701734,40.8394010275,2.18263312232,0.531060168831,30.7330289046,3.66279960642,0.370147154274,0.893825771559,2.86499289857,0.0,0.0,0.0
104,1.8973682834,1.42658799349,40.6485444672,2.18403095212,0.532649975728,30.8074479583,3.6595911525,0.372408067276,0.894553317314,2.86407178228,0.0,0.0,0.0
105,1.90534172127,1.43462710819,40.4594599742,2.18538863593,0.534215503939,30.8806566663,3.65637910994,0.374653420227,0.895299626092,2.86321164781,0.0,0.0,0.0
106,1.91322641755,1.44264409751,40.2721251182,2.18670690922,0.535756721092,30.9526817738,3.65316322091,0.376882801576,0.896064103767,2.86241239062,0.0,0.0,0.0
107,1.92102408541,1.45063871099,40.0865176637,2.18798648831,0.537273600871,31.0235493183,3.64994324109,0.37909580502,0.896846160241,2.86167388311,0.0,0.0,0.0
108,1.92873639636,1.45861071113,39.9026155812,2.18922807085,0.538766122738,31.0932846491,3.64671893887,0.381292029478,0.897645209818,2.86099597552,0.0,0.0,0.0
109,1.93636498141,1.46655987284,39.7203970542,2.19043233642,0.540234271693,31.1619124471,3.64349009451,0.383471079105,0.898460671568,2.86037849674,0.0,0.0,0.0
110,1.9439114321,1.47448598289,39.5398404891,2.19159994698,0.541678037982,31.2294567427,3.64025649949,0.385632563227,0.899291969632,2.85982125518,0.0,0.0,0.0
111,1.95137730164,1.48238883946,39.3609245212,2.19273154738,0.541613544182,31.2959409344,3.63701795573,0.386264883483,0.900303575089,2.86016933806,0.0,0.0,0.0
112,1.95876410592,1.49026825163,39.1836280203,2.19382776585,0.543000648484,31.361387807,3.63377427503,0.388373237051,0.901162600028,2.85973470342,0.0,0.0,0.0
113,1.96607332456,1.49812403897,39.0079300961,2.19488921449,0.544363393789,31.4258195486,3.63052527839,0.390462844956,0.902035760925,2.85935944328,0.0,0.0,0.0
114,1.97330640189,1.50595603106,38.8338101032,2.19591648969,0.545701789289,31.4892577676,3.62727079552,0.392533340201,0.902922506386,2.85904329265,0.0,0.0,0.0
115,1.98046474792,1.51376406715,38.6612476432,2.19691017259,0.547015848352,31.5517235098,3.62401066425,0.394584361041,0.903822291283,2.85878597008,0.0,0.0,0.0
116,1.98754973925,1.52154799565,38.4902225701,2.1978708295,0.548305588291,31.6132372735,3.62074473007,0.396615550951,0.904734576924,2.85858717836,0.0,0.0,0.0
117,1.99456271999,1.52930767383,38.3207149909,2.19879901234,0.549571030211,31.673819026,3.61747284568,0.398626558669,0.905658831209,2.85844660527,0.0,0.0,0.0
118,2.00150500268,1.53704296744,38.1527052685,2.19969525903,0.550812198824,31.7334882181,3.61419487052,0.400617038209,0.906594528771,2.85836392428,0.0,0.0,0.0
119,2.00837786911,1.54475375034,37.9861740228,2.20056009388,0.552029122282,31.7922637997,3.61091067036,0.402586648875,0.907541151086,2.85833879521,0.0,0.0,0.0
120,2.01518257117,1.55243990417,37.821102132,2.20139402797,0.551667838121,31.8501642335,3.60762011697,0.402875356821,0.908643643359,2.85923476077,0.0,0.0,0.0
