,theta i [rad],r orb [AU],v orb [km s-1],ang orb [rad],r L1 [AU],v i [km s-1],ang i [rad],a p [AU],e p,theta p i [rad],flag impact,v imp [km s-1],ang imp [rad]
0,0.0,0.72,65.8647800854,1.57079632679,0.340180183703,9.20121048429,1.57079632679,0.172895895694,0.96754343033,3.14159265359,0.0,0.0,0.0
1,0.0314749859677,0.720133754892,65.8571337212,1.582599142,0.340243379208,9.22179294395,1.65518391192,0.172941324499,0.967627540399,3.14442294551,0.0,0.0,0.0
2,0.0629266069621,0.720534787863,65.834219574,1.59439137019,0.340432856247,9.28318569058,1.73890207371,0.173077574142,0.967878907374,3.14722747329,0.0,0.0,0.0
3,0.0943316160532,0.721202405401,65.7961122333,1.60616247888,0.340748287156,9.3843488413,1.82131823636,0.17330453459,0.968294657222,3.14998074485,0.0,0.0,0.0
4,0.125667001323,0.722135457005,65.7429351961,1.61790204407,0.341189128354,9.52362555669,1.90186852662,0.173622023386,0.968870051678,3.15265780567,0.0,0.0,0.0
5,0.156910100038,0.723332343149,65.6748596535,1.62959980291,0.34175462411,9.69884439178,1.98008086055,0.174029787051,0.96959856435,3.15523449138,0.0,0.0,0.0
6,0.188038707145,0.72479102621,65.5921028299,1.6412457038,0.341718295166,9.90744165529,2.05558746427,0.174150618162,0.970534269695,3.15765252827,0.0,0.0,0.0
7,0.219031179626,0.726509044281,65.4949258994,1.65282995445,0.342528291674,10.1465891912,2.12812710732,0.174736254469,0.9715406078,3.15995528156,0.0,0.0,0.0
8,0.249866532686,0.728483527578,65.3836315269,1.66434306618,0.34345920422,10.4133151634,2.19753888676,0.175410748301,0.972670642516,3.16209250156,0.0,0.0,0.0
9,0.280524528553,0.730711217237,65.2585610748,1.67577589477,0.344509496341,10.7046092323,2.26375021536,0.176173586147,0.973911984999,3.16404530844,1.0,613.752150026,1.46442195532
10,0.310985756371,0.733188486233,65.1200915284,1.68711967715,0.344943535598,11.0175076055,2.32676173283,0.176639268339,0.975303109482,3.16574382144,1.0,613.762967629,1.32145440104
11,0.341231702646,0.735911362106,64.9686321926,1.6983660637,0.346224568291,11.3491569692,2.38663143128,0.177574381882,0.976722738738,3.16727472482,1.0,613.784518003,1.23335050828
12,0.371244811781,0.738875551209,64.8046212174,1.70950714589,0.346879516573,11.6968587712,2.44345963021,0.178205290617,0.978256338365,3.16851682148,1.0,613.798929561,1.15289122856
13,0.401008536433,0.742076464141,64.6285220061,1.72053547926,0.348382247469,12.0580967301,2.49737577402,0.179308994291,0.97979392299,3.16957352499,1.0,613.823896264,1.08449173644
14,0.430507377601,0.745509242068,64.4408195624,1.73144410153,0.349247576411,12.4305509596,2.54852747964,0.180100277185,0.981407420282,3.1703164782,1.0,613.841606795,1.0164131451
15,0.459726914558,0.749168783614,64.2420168278,1.74222654606,0.350961956234,12.8121020282,2.59707187883,0.181368553595,0.982999832811,3.17086156667,1.0,613.869670023,0.954714003667
16,0.488653824858,0.753049772012,64.0326310591,1.75287685067,0.352026273356,13.2008278707,2.64316906694,0.182315067872,0.984629593222,3.17107744374,1.0,613.890358354,0.892045958628
17,0.51727589485,0.757146702257,63.8131902898,1.76338956208,0.353941454962,13.5949959342,2.68697735706,0.183743642016,0.986213743913,3.17108772281,1.0,613.921178345,0.833512431022
18,0.545582021189,0.761453907973,63.584229915,1.77375973615,0.355192717392,13.9930523932,2.728650005,0.184840029091,0.987797731622,3.17076229746,1.0,613.944507609,0.773715889748
19,0.573562203887,0.765965587754,63.3462894347,1.78398293424,0.356530532404,14.3936097879,2.76833308562,0.186007016941,0.989335078139,3.17016536299,1.0,613.969036025,0.714953943746
20,0.601207532231,0.770675830866,63.0999093793,1.7940552162,0.358722987907,14.795434045,2.80616424104,0.18766520175,0.99079300278,3.16935858583,1.0,614.003362371,0.658619458821
21,0.628510162702,0.775578641858,62.8456284516,1.80397312986,0.360228722117,15.1974315005,2.84227206606,0.188973538515,0.992199341137,3.1682216312,1.0,614.030019965,0.601018475577
22,0.655463291897,0.780667964281,62.5839808857,1.81373369798,0.361811082124,15.5986363675,2.8767759486,0.190347817564,0.993519819856,3.16682027525,1.0,614.057625298,0.543835831334
23,0.682061123574,0.785937703122,62.3154940473,1.8233344027,0.363466689118,15.998198866,2.90978621987,0.191786405023,0.99474311522,3.16515912468,1.0,614.086097279,0.486926238093
24,0.708298831212,0.791381745934,62.0406862775,1.83277316787,0.365984354563,16.3953741552,2.94140450757,0.193731557892,0.995850359399,3.16329074763,1.0,614.123920564,0.43115107301
25,0.734172517337,0.796993982685,61.7600649765,1.84204833985,0.367782011623,16.7895121226,2.97172421387,0.195299866087,0.996851111338,3.16112225941,1.0,614.153865874,0.374273305578
26,0.759679168909,0.802768323981,61.4741249411,1.85115866671,0.369643075707,17.1800480114,3.00083105956,0.1969278581,0.997726093607,3.15871160394,1.0,614.184444749,0.317320734765
27,0.784816611473,0.808698718037,61.1833469297,1.8601032767,0.371564279465,17.5664938856,3.02880365736,0.198613938385,0.998467762909,3.15606590737,1.0,614.215584696,0.260185549053
28,0.809583461135,0.814779166055,60.8881964618,1.86888165584,0.373542404071,17.9484308614,3.05571408521,0.200356527847,0.999069520643,3.15319265284,1.0,614.247215933,0.202759941416
29,0.833979076106,0.821003736281,60.5891228304,1.87749362536,0.375574285386,18.3255020677,3.08162844328,0.202154066002,0.999525691059,3.15009958871,1.0,614.279271536,0.144933063347
30,0.858003506956,0.827366576402,60.2865583295,1.88593931857,0.377656819285,18.6974062541,3.10660738209,0.204005012796,0.999831492154,3.14679464579,1.0,614.311687551,0.0865879918716
31,0.88165744778,0.833861924764,59.9809176637,1.89421915821,0.379786966367,19.0638920176,3.13070659724,0.205907850252,0.999983000673,3.14328586321,1.0,614.344403079,0.0275984779217
32,0.904942187858,0.840484120249,59.6725975338,1.90233383397,0.381961755989,19.4247525762,3.15397728701,0.207861083878,0.999977112396,3.13958132268,1.0,614.377360322,-0.032174769106
33,0.927859563376,0.847227610639,59.3619763936,1.91028428026,0.384178289556,19.77982103,3.17646657104,0.209863243768,0.999811498857,3.13568909117,1.0,614.410504603,-0.0928885617579
34,0.950411911243,0.854086960003,59.0494143405,1.9180716548,0.386433743318,20.1289660854,3.19821787286,0.211912885572,0.999484561515,3.13161717105,1.0,614.443784361,-0.154722892638
35,0.972602024307,0.861056854932,58.7352531363,1.92569731798,0.388725370605,20.472088188,3.21927126663,0.214008591273,0.998995384259,3.12737345747,1.0,614.477151126,-0.217888357314
36,0.994433107457,0.868132109447,58.4198163535,1.9331628127,0.391050503421,20.8091160112,3.23966378995,0.216148969679,0.998343685087,3.12296570256,1.0,614.510559471,-0.282636235037
37,1.01590873644,0.875307669178,58.1034096088,1.94046984538,0.393406553688,21.1400032948,3.25942972652,0.21833265684,0.99752976759,3.11840148554,1.0,614.543966952,-0.349272655705
38,1.03703281859,0.882578614615,57.7863208831,1.94762026798,0.395791014042,21.4647259847,3.27860086055,0.220558316317,0.996554472846,3.11368818836,1.0,614.577334029,-0.41817921816
39,1.0578095548,0.889940163231,57.4688209269,1.95461606059,0.398201458109,21.7832796354,3.29720670469,0.222824639194,0.995419132255,3.10883297652,1.0,614.61062398,-0.489844189838
40,1.07824340462,0.897387671167,57.1511637113,1.96145931545,0.399737254624,22.095677078,3.31527470559,0.224563200366,0.994137099301,3.10392790397,1.0,614.635705022,-0.563499780801
41,1.09833905279,0.904916634014,56.8335869378,1.96815222172,0.402185174383,22.4019463047,3.33283042802,0.226897403133,0.992690215911,3.09882131567,1.0,614.668772976,-0.64258837694
42,1.11810137852,0.912522687132,56.5163125797,1.97469705142,0.404652206319,22.7021285671,3.34989772059,0.229268282813,0.991090058697,3.0935932588,1.0,614.701669467,-0.727176672983
43,1.13753542602,0.920201605146,56.1995474655,1.98109614616,0.407136249444,22.9962766506,3.366498864,0.231674639485,0.989339470642,3.08824991546,1.0,614.734367973,-0.819181446158
44,1.15664637788,0.927949301184,55.8834838732,1.98735190496,0.40963528083,23.2844533295,3.38265470491,0.234115299522,0.987441573349,3.08279721186,1.0,614.766844259,-0.921817899667
45,1.17543953035,0.93576182567,55.56830014,1.99346677311,0.411210655865,23.5667299751,3.39838477621,0.235971997175,0.985428220176,3.077389133,1.0,614.79109909,-1.03746396988
46,1.19392026998,0.943635364477,55.2541612901,1.99944323168,0.413726019407,23.8431852968,3.41370740496,0.238467119968,0.983250179711,3.07174820484,1.0,614.823097648,-1.18778543732
47,1.21209405275,0.951566237015,54.9412196542,2.00528378804,0.416250700029,24.1139042196,3.42863981004,0.240992955639,0.980935761469,3.06601452898,1.0,614.854813559,-1.46255681027
48,1.22996638499,0.959550894019,54.6296154876,2.01099096736,0.417822465131,24.3789768774,3.44319819037,0.242898955058,0.978530616528,3.06038360698,0.0,0.0,0.0
49,1.24754280535,0.967585914829,54.3194775918,2.01656730455,0.420352643453,24.6384977038,3.45739780407,0.245471652472,0.975960110474,3.05449375612,0.0,0.0,0.0
50,1.26482886904,0.975668004751,54.010923915,2.02201533719,0.422887136975,24.892564627,3.47125304057,0.248071690022,0.973265450073,3.04852555848,0.0,0.0,0.0
51,1.28183013355,0.983793992234,53.7040621408,2.02733759919,0.425424432865,25.1412783522,3.48477748599,0.250698061888,0.970450808422,3.0424832379,0.0,0.0,0.0
52,1.29855214518,0.991960825641,53.398990272,2.03253661489,0.426970128955,25.384741713,3.49798398195,0.252654115149,0.967582969589,3.03662265052,0.0,0.0,0.0
53,1.31500042753,1.00016557021,53.0957971858,2.03761489392,0.429500533959,25.623059105,3.51088467947,0.255318004262,0.964546751821,3.03046009073,0.0,0.0,0.0
54,1.33118047122,1.0084054049,52.7945631714,2.04257492669,0.432029546659,25.8563359823,3.52349108809,0.258005115116,0.961403493406,3.02423516411,0.0,0.0,0.0
55,1.34709772414,1.01667761897,52.495360458,2.04741918022,0.433538207717,26.0846784045,3.53581412011,0.25998223116,0.958237624824,3.0182526899,0.0,0.0,0.0
56,1.3627575835,1.02497960875,52.1982537107,2.05215009457,0.436052389942,26.3081926469,3.54786413158,0.262700186588,0.954899255319,3.0119303031,0.0,0.0,0.0
57,1.37816538843,1.03330887428,51.9033005118,2.05677007976,0.437527184852,26.5269848522,3.55965095938,0.264680988034,0.95155948992,3.00589172791,0.0,0.0,0.0
58,1.39332641381,1.04166301611,51.6105518152,2.06128151305,0.44002181847,26.7411607302,3.57118395552,0.26742539508,0.948043509567,2.99948549308,0.0,0.0,0.0
59,1.40824586445,1.0500397318,51.3200523896,2.06568673653,0.44250924019,26.9508252887,3.5824720182,0.270188137969,0.944441873068,2.99303291017,0.0,0.0,0.0
60,1.42292887054,1.05843681278,51.0318412305,2.0699880552,0.443928957385,27.1560826071,3.59352362063,0.272171441431,0.940871229512,2.98692738107,0.0,0.0,0.0
61,1.43738048371,1.06685214113,50.7459519521,2.07418773531,0.446390589464,27.3570356402,3.60434683762,0.274954502145,0.937117285837,2.98040867634,0.0,0.0,0.0
62,1.45160567332,1.07528368629,50.4624131681,2.0782880029,0.447765783174,27.5537860437,3.61494936972,0.276929310436,0.933416272502,2.97428026714,0.0,0.0,0.0
63,1.46560932382,1.08372950197,50.181248842,2.08229104273,0.450197945162,27.7464340328,3.62533856583,0.279728626878,0.929526250646,2.96770611628,0.0,0.0,0.0
64,1.47939623264,1.09218772319,49.9024786184,2.08619899744,0.45261833965,27.9350782624,3.63552144409,0.282541787306,0.925570529157,2.96109795585,0.0,0.0,0.0
65,1.49297110798,1.10065656312,49.626118146,2.09001396677,0.453924432358,28.1198157208,3.6455047109,0.284501879879,0.921700614025,2.95494649625,0.0,0.0,0.0
66,1.50633856776,1.10913431021,49.3521793697,2.09373800717,0.456310515942,28.3007416496,3.65529477888,0.287325605632,0.917631779005,2.94829681032,0.0,0.0,0.0
67,1.51950313845,1.11761932537,49.0806708131,2.09737313143,0.457563871891,28.4779494753,3.6648977834,0.289265869933,0.913670695357,2.94214935774,0.0,0.0,0.0
68,1.53246925468,1.12611003925,48.8115978376,2.10092130864,0.459912812775,28.6515307583,3.66911567284,0.292096372357,0.911173780781,2.93706285999,0.0,0.0,0.0
69,1.54524125859,1.13460494936,48.5449628957,2.10438446404,0.462246464811,28.8215751491,3.66679573295,0.294936545085,0.910772688591,2.93399190265,0.0,0.0,0.0
70,1.55782340002,1.14310261764,48.280765758,2.1077644792,0.463419984095,28.9881703616,3.66447968486,0.296846021178,0.910573081681,2.93153088768,0.0,0.0,0.0
71,1.57021983662,1.1516016678,48.0190037329,2.11106319224,0.465712790555,29.1514021533,3.66216603489,0.299687644803,0.910241775289,2.92855973011,0.0,0.0,0.0
72,1.58243463446,1.16010078303,47.7596718659,2.11428239815,0.466827346111,29.3113543166,3.65985341326,0.301566694418,0.910111224221,2.92622000634,0.0,0.0,0.0
73,1.59447176838,1.16859870344,47.5027631358,2.11742384913,0.469077161234,29.4681086729,3.65754056406,0.304406208554,0.909848818095,2.92335390259,0.0,0.0,0.0
74,1.60633512298,1.17709422389,47.2482686276,2.12048925514,0.47013073007,29.6217450792,3.65522633601,0.306250733373,0.909785988425,2.92114004425,0.0,0.0,0.0
75,1.61802849347,1.18558619174,46.9961777011,2.12348028435,0.472335643971,29.7723414364,3.65290967399,0.309084661096,0.909591297278,2.91838373582,0.0,0.0,0.0
76,1.62955558694,1.19407350481,46.7464781417,2.12639856382,0.473326438372,29.9199737068,3.65058961134,0.310890670118,0.909594587855,2.91629977226,0.0,0.0,0.0
77,1.64092002325,1.20255510917,46.4991563103,2.12924568004,0.475484756914,30.0647159297,3.6482652627,0.313715613902,0.909466164593,2.91365749954,0.0,0.0,0.0
78,1.65212533655,1.21102999728,46.2541972738,2.13202317965,0.476411204183,30.2066402473,3.64593581755,0.315479221082,0.909533745632,2.91170693098,0.0,0.0,0.0
79,1.66317497651,1.21949720603,46.0115849317,2.13473257014,0.478521430248,30.3458169295,3.64360053417,0.318291859279,0.909469917228,2.90918244724,0.0,0.0,0.0
80,1.67407230996,1.22795581502,45.7713021299,2.13737532061,0.480611339075,30.482314405,3.64125873416,0.321105714643,0.909438178922,2.90671390348,0.0,0.0,0.0
81,1.68482062208,1.23640494465,45.5333307732,2.13995286244,0.481442970513,30.6161992894,3.63890979738,0.322806366185,0.909598667054,2.90496484953,0.0,0.0,0.0
82,1.69542311816,1.24484375449,45.2976519224,2.14246659015,0.483482863689,30.7475364207,3.63655315733,0.325603216572,0.909628724361,2.90261898755,0.0,0.0,0.0
83,1.70588292508,1.25327144169,45.0642458893,2.14491786212,0.484247027614,30.8763888928,3.63418829685,0.327252277186,0.909848204993,2.90101003108,0.0,0.0,0.0
84,1.71620309302,1.26168723944,44.8330923196,2.14730800141,0.486235827113,31.0028180929,3.63181474418,0.330028973807,0.90993795759,2.89878946488,0.0,0.0,0.0
85,1.7263865969,1.27009041535,44.6041702786,2.14963829655,0.486931564761,31.1268837359,3.6294320694,0.331622906928,0.910214060401,2.89732240998,0.0,0.0,0.0
86,1.73643633814,1.27848027015,44.3774583211,2.15191000232,0.488868335653,31.2486439034,3.62703988105,0.334376369949,0.91036128921,2.89522932708,0.0,0.0,0.0
87,1.74635514626,1.2868561362,44.1529345614,2.15412434057,0.489494830724,31.3681550814,3.6246378231,0.335911741551,0.910691555452,2.89390553921,0.0,0.0,0.0
88,1.75614578049,1.29521737626,43.9305767373,2.15628250099,0.491378768514,31.4854721981,3.62222557213,0.338638959555,0.910893947958,2.89194172065,0.0,0.0,0.0
89,1.76581093153,1.30356338221,43.710362266,2.15838564193,0.493240202829,31.6006486633,3.61980283469,0.341361164337,0.91112375624,2.89003954928,0.0,0.0,0.0
90,1.77535322297,1.31189357376,43.492268302,2.16043489116,0.493765753649,31.713736405,3.61736934496,0.342810469358,0.911531027829,2.88892899027,0.0,0.0,0.0
91,1.78477521305,1.32020739733,43.2762717845,2.16243134663,0.49557335152,31.8247859085,3.61492486253,0.345502154963,0.911812446691,2.88715820271,0.0,0.0,0.0
92,1.79407939624,1.32850432497,43.062349484,2.16437607727,0.496028145542,31.9338462543,3.61246917034,0.346884800207,0.912267530488,2.88619272299,0.0,0.0,0.0
93,1.80326820476,1.33678385321,42.8504780446,2.16627012372,0.497781378962,32.0409651551,3.61000207283,0.349543118963,0.912598105064,2.88455417812,0.0,0.0,0.0
94,1.81234401024,1.34504550215,42.6406340214,2.16811449908,0.498165005002,32.146188994,3.60752339421,0.350856029993,0.913098403165,2.88373379244,0.0,0.0,0.0
95,1.82130912514,1.35328881434,42.4327939188,2.16991018965,0.49986344014,32.2495628591,3.60503297685,0.353478204199,0.913475655952,2.88222801499,0.0,0.0,0.0
96,1.83016580435,1.36151335392,42.2269342215,2.17165815559,0.501538456916,32.351130581,3.60253067981,0.356090891761,0.913876167611,2.8807857805,0.0,0.0,0.0
97,1.83891624663,1.36971870572,42.0230314246,2.17335933173,0.501818869392,32.4509347677,3.60001637751,0.357301740529,0.914440018617,2.88017960448,0.0,0.0,0.0
98,1.84756259609,1.37790447435,41.8210620616,2.17501462815,0.503438575948,32.549016839,3.59748995843,0.359874336541,0.914883509628,2.87887051903,0.0,0.0,0.0
99,1.85610694367,1.38607028345,41.6210027274,2.17662493093,0.503647164304,32.6454170612,3.59495132397,0.361008244373,0.915486134636,2.87840823266,0.0,0.0,0.0
100,1.86455132842,1.39421577479,41.4228301043,2.17819110275,0.505211326056,32.7401745795,3.59240038741,0.363538143549,0.915970130762,2.87723207824,0.0,0.0,0.0
101,1.87289773898,1.40234060761,41.2265209805,2.17971398358,0.506751715324,32.8333274509,3.58983707287,0.366055567198,0.916474370918,2.87611972793,0.0,0.0,0.0
102,1.88114811491,1.41044445782,41.0320522696,2.18119439131,0.506856421054,32.9249126763,3.58726131444,0.367077096629,0.917131042729,2.87586891858,0.0,0.0,0.0
103,1.88930434795,1.41852701734,40.8394010275,2.18263312232,0.508341017509,33.0149662309,3.58467305534,0.36954812074,0.917672141176,2.8748888645,0.0,0.0,0.0
104,1.8973682834,1.42658799349,40.6485444672,2.18403095212,0.50837370368,33.1035230954,3.58207224708,0.370486178879,0.918361333582,2.87477899845,0.0,0.0,0.0
105,1.90534172127,1.43462710819,40.4594599742,2.18538863593,0.50980243014,33.1906172841,3.57945884882,0.372908382312,0.918936889462,2.87393040206,0.0,0.0,0.0
106,1.91322641755,1.44264409751,40.2721251182,2.18670690922,0.511207222049,33.2762818749,3.57683282667,0.375315283665,0.919529737013,2.87314510536,0.0,0.0,0.0
107,1.92102408541,1.45063871099,40.0865176637,2.18798648831,0.511135966559,33.3605490364,3.57419415306,0.376131621845,0.920263841163,2.87324161996,0.0,0.0,0.0
108,1.92873639636,1.45861071113,39.9026155812,2.18922807085,0.512484848784,33.4434500553,3.57154280622,0.378486262507,0.920887639525,2.87258630426,0.0,0.0,0.0
109,1.93636498141,1.46655987284,39.7203970542,2.19043233642,0.5138097696,33.5250153637,3.56887876959,0.380824006128,0.921527016909,2.87199371109,0.0,0.0,0.0
110,1.9439114321,1.47448598289,39.5398404891,2.19159994698,0.513634761158,33.6052745631,3.56620203139,0.381513480758,0.922300802127,2.87229270908,0.0,0.0,0.0
111,1.95137730164,1.48238883946,39.3609245212,2.19273154738,0.514903835483,33.6842564504,3.56351258417,0.383795685713,0.922967735214,2.87182819256,0.0,0.0,0.0
112,1.95876410592,1.49026825163,39.1836280203,2.19382776585,0.516148968395,33.7619890421,3.56081042436,0.386059460091,0.923648587608,2.87142562136,0.0,0.0,0.0
113,1.96607332456,1.49812403897,39.0079300961,2.19488921449,0.515870544326,33.8384995976,3.55809555193,0.386617297193,0.924457035752,2.87192260385,0.0,0.0,0.0
114,1.97330640189,1.50595603106,38.8338101032,2.19591648969,0.51705998302,33.9138146417,3.55536796999,0.388822425048,0.925162175598,2.87164583031,0.0,0.0,0.0
115,1.98046474792,1.51376406715,38.6612476432,2.19691017259,0.518225540896,33.9879599879,3.55262768452,0.391007653697,0.925879635074,2.87143004956,0.0,0.0,0.0
116,1.98754973925,1.52154799565,38.4902225701,2.1978708295,0.51784416709,34.060960758,3.54987470403,0.391429464237,0.926717956448,2.87211999646,0.0,0.0,0.0
117,1.99456271999,1.52930767383,38.3207149909,2.19879901234,0.518954260098,34.1328414046,3.54710903929,0.393553117068,0.927456572595,2.87202740881,0.0,0.0,0.0
118,2.00150500268,1.53704296744,38.1527052685,2.19969525903,0.520040567978,34.20362573,3.54433070308,0.395655470579,0.928205973659,2.87199470893,0.0,0.0,0.0
119,2.00837786911,1.54475375034,37.9861740228,2.20056009388,0.519556821364,34.2733369069,3.54153970997,0.395937265393,0.929069616328,2.87287215276,0.0,0.0,0.0
