,theta i [rad],r orb [AU],v orb [km s-1],ang orb [rad],r L1 [AU],v i [km s-1],ang i [rad],a p [AU],e p,theta p i [rad],flag impact,v imp [km s-1],ang imp [rad]
0,0.0,0.72,65.8647800854,1.57079632679,0.338738742275,10.988495974,1.57079632679,0.173364918437,0.9539059305,3.14159265359,0.0,0.0,0.0
1,0.0314749859677,0.720133754892,65.8571337212,1.582599142,0.338801670002,11.0037495919,1.64149308184,0.173409251894,0.95400552379,3.14500719203,0.0,0.0,0.0
2,0.0629266069621,0.720534787863,65.834219574,1.59439137019,0.338990344173,11.0493240229,1.71183468322,0.173542212641,0.954303287588,3.14839473719,0.0,0.0,0.0
3,0.0943316160532,0.721202405401,65.7961122333,1.60616247888,0.33930443851,11.1246682789,1.78147862316,0.173763682105,0.954796190131,3.15172858982,0.0,0.0,0.0
4,0.125667001323,0.722135457005,65.7429351961,1.61790204407,0.339743411737,11.2288907996,1.85010655655,0.174073463624,0.955479232861,3.15498263143,0.0,0.0,0.0
5,0.156910100038,0.723332343149,65.6748596535,1.62959980291,0.340306511324,11.3607967798,1.91743374249,0.174471283895,0.956345530341,3.15813159692,0.0,0.0,0.0
6,0.188038707145,0.72479102621,65.5921028299,1.6412457038,0.34099277863,11.5189353244,1.9832157839,0.174956794941,0.957386418812,3.16115132647,0.0,0.0,0.0
7,0.219031179626,0.726509044281,65.4949258994,1.65282995445,0.341801055401,11.7016523902,2.04725243022,0.175529576609,0.958591590373,3.16401899155,0.0,0.0,0.0
8,0.249866532686,0.728483527578,65.3836315269,1.66434306618,0.342000778752,11.9071454949,2.10938855756,0.175803739037,0.960033793555,3.16665762303,0.0,0.0,0.0
9,0.280524528553,0.730711217237,65.2585610748,1.67577589477,0.343046611035,12.1335166973,2.16951272924,0.176547444351,0.961527503582,3.16915349598,0.0,0.0,0.0
10,0.310985756371,0.733188486233,65.1200915284,1.68711967715,0.344209613196,12.3788211591,2.22755389952,0.177376514871,0.963146086132,3.17143908263,0.0,0.0,0.0
11,0.341231702646,0.735911362106,64.9686321926,1.6983660637,0.344751272284,12.6411095218,2.28347687697,0.177897947408,0.964948219508,3.17342803407,0.0,0.0,0.0
12,0.371244811781,0.738875551209,64.8046212174,1.70950714589,0.346139901414,12.9184632047,2.33727712682,0.178892860448,0.966766403113,3.17524354359,0.0,0.0,0.0
13,0.401008536433,0.742076464141,64.6285220061,1.72053547926,0.346896608916,13.2090224601,2.38897539624,0.17957258571,0.968727551034,3.17672998414,0.0,0.0,0.0
14,0.430507377601,0.745509242068,64.4408195624,1.73144410153,0.34850132092,13.5110075516,2.43861252732,0.180729274167,0.970679408981,3.17803001016,0.0,0.0,0.0
15,0.459726914558,0.749168783614,64.2420168278,1.74222654606,0.349462118843,13.8227337637,2.48624470131,0.181562100058,0.972731987392,3.17897877934,0.0,0.0,0.0
16,0.488653824858,0.753049772012,64.0326310591,1.75287685067,0.351272469787,14.142621124,2.53193925293,0.182876170893,0.974750088231,3.17973354913,1.0,613.90252117,1.48888950659
17,0.51727589485,0.757146702257,63.8131902898,1.76338956208,0.352425645762,14.4691997672,2.57577111012,0.183856626043,0.976826756749,3.18012473428,1.0,613.923595355,1.27928368216
18,0.545582021189,0.761453907973,63.584229915,1.77375973615,0.354430501275,14.8011118318,2.61781985561,0.185323438406,0.978844943955,3.1803189505,1.0,613.954705778,1.16608839878
19,0.573562203887,0.765965587754,63.3462894347,1.78398293424,0.355763800091,15.1371106904,2.65816736778,0.186445850173,0.980881154069,3.18014633684,1.0,613.97817998,1.06941580781
20,0.601207532231,0.770675830866,63.0999093793,1.7940552162,0.357951540636,15.4760582119,2.69689597861,0.18806059235,0.982836860469,3.17977743587,1.0,614.011457756,0.987798333746
21,0.628510162702,0.775578641858,62.8456284516,1.80397312986,0.359452367127,15.8169206058,2.73408707356,0.189319162038,0.984772881876,3.17904651316,1.0,614.037000392,0.909672105447
22,0.655463291897,0.780667964281,62.5839808857,1.81373369798,0.361029632717,16.1587633367,2.76982006385,0.190641080706,0.986636389171,3.17804264236,1.0,614.063464429,0.836529692408
23,0.682061123574,0.785937703122,62.3154940473,1.8233344027,0.363466689118,16.5007454472,2.80417166023,0.192465797343,0.988391291344,3.17684835803,1.0,614.099395135,0.769027060337
24,0.708298831212,0.791381745934,62.0406862775,1.83277316787,0.36519218065,16.8421135738,2.83721538803,0.193914865562,0.990077303818,3.1753121241,1.0,614.127445719,0.701827742015
25,0.734172517337,0.796993982685,61.7600649765,1.84204833985,0.366984219855,17.182195865,2.86902129163,0.195422450892,0.991656558179,3.17352076832,1.0,614.156186198,0.636665522322
26,0.759679168909,0.802768323981,61.4741249411,1.85115866671,0.368839503818,17.5203959347,2.89965578242,0.196986886211,0.993119664486,3.17148174038,1.0,614.185543961,0.573064303007
27,0.784816611473,0.808698718037,61.1833469297,1.8601032767,0.370754771245,17.8561869821,2.92918159666,0.198606518424,0.994458223548,3.1692029457,1.0,614.21544882,0.510659814289
28,0.809583461135,0.814779166055,60.8881964618,1.86888165584,0.373542404071,18.1891061292,2.95765783224,0.20075076213,0.995656018098,3.1667477966,1.0,614.254295625,0.45021009886
29,0.833979076106,0.821003736281,60.5891228304,1.87749362536,0.375574285386,18.5187490378,2.9851400427,0.202482506037,0.996726352794,3.16400853647,1.0,614.28506695,0.389221494548
30,0.858003506956,0.827366576402,60.2865583295,1.88593931857,0.377656819285,18.8447648145,3.01168036899,0.204264809012,0.997652410579,3.1610544684,1.0,614.316190265,0.328701105569
31,0.88165744778,0.833861924764,59.9809176637,1.89421915821,0.379786966367,19.1668512411,3.03732769714,0.20609609564,0.998429531876,3.15789437079,1.0,614.347606654,0.268463670571
32,0.904942187858,0.840484120249,59.6725975338,1.90233383397,0.381961755989,19.4847503214,3.06212783048,0.207974814711,0.999053907968,3.15453704242,1.0,614.379260196,0.208338982266
33,0.927859563376,0.847227610639,59.3619763936,1.91028428026,0.384178289556,19.7982441307,3.08612366778,0.209899440438,0.999522536618,3.15099124304,1.0,614.411097976,0.148165259855
34,0.950411911243,0.854086960003,59.0494143405,1.9180716548,0.386433743318,20.1071509822,3.10935538352,0.211868473533,0.99983317513,3.14726564213,1.0,614.443070092,0.0877835538839
35,0.972602024307,0.861056854932,58.7352531363,1.92569731798,0.388725370605,20.4113218858,3.13186060519,0.21388044208,0.999984291712,3.14336877526,1.0,614.47512962,0.0270326291124
36,0.994433107457,0.868132109447,58.4198163535,1.9331628127,0.391050503421,20.7106372749,3.15367458419,0.215933902118,0.999975015973,3.13930900776,1.0,614.507232576,-0.0342561304933
37,1.01590873644,0.875307669178,58.1034096088,1.94046984538,0.393406553688,21.0050040103,3.17483036007,0.218027438148,0.999805089276,3.13509450466,1.0,614.539337855,-0.0962642409976
38,1.03703281859,0.882578614615,57.7863208831,1.94762026798,0.395791014042,21.29435263,3.19535891614,0.220159663462,0.999474815506,3.13073320638,1.0,614.571407156,-0.159192560991
39,1.0578095548,0.889940163231,57.4688209269,1.95461606059,0.398201458109,21.5786348221,3.21528932507,0.222329220235,0.998985012783,3.12623280992,1.0,614.603404903,-0.223269307228
40,1.07824340462,0.897387671167,57.1511637113,1.96145931545,0.400635540575,21.857821127,3.23464888601,0.224534779592,0.998336966508,3.12160075439,1.0,614.635298146,-0.288760586811
41,1.09833905279,0.904916634014,56.8335869378,1.96815222172,0.403090996833,22.1318988336,3.25346325178,0.226775041486,0.997532384055,3.11684421076,1.0,614.667056466,-0.355984894234
42,1.11810137852,0.912522687132,56.5163125797,1.97469705142,0.405565642436,22.4008700692,3.27175654737,0.229048734523,0.996573351371,3.1119700751,1.0,614.69865187,-0.425333963054
43,1.13753542602,0.920201605146,56.1995474655,1.98109614616,0.408057372165,22.6647500519,3.28955147907,0.231354615603,0.995462291684,3.10698496499,1.0,614.730058679,-0.497304113998
44,1.15664637788,0.927949301184,55.8834838732,1.98735190496,0.410564159003,22.9235655136,3.30686943584,0.233691469561,0.994201926403,3.10189521848,1.0,614.761253422,-0.572545747092
45,1.17543953035,0.93576182567,55.56830014,1.99346677311,0.4130840529,23.1773532676,3.3237305829,0.236058108739,0.992795238299,3.09670689527,1.0,614.792214721,-0.65194608008
46,1.19392026998,0.943635364477,55.2541612901,1.99944323168,0.414670599345,23.4261589055,3.34015394747,0.237831720425,0.991262481055,3.09154075232,1.0,614.815012879,-0.734729391709
47,1.21209405275,0.951566237015,54.9412196542,2.00528378804,0.417203218779,23.6700356257,3.35615749832,0.240244202687,0.989576214061,3.08618515746,1.0,614.845481482,-0.826522531824
48,1.22996638499,0.959550894019,54.6296154876,2.01099096736,0.419743487928,23.9090431767,3.37175821901,0.242682872277,0.987754056531,3.08074784032,1.0,614.875663662,-0.928820913006
49,1.24754280535,0.967585914829,54.3194775918,2.01656730455,0.422289752378,24.1432468966,3.38697217482,0.24514664654,0.985799706206,3.075233789,1.0,614.905545293,-1.04786314699
50,1.26482886904,0.975668004751,54.010923915,2.02201533719,0.42484042626,24.3727168562,3.40181457495,0.247634467234,0.983716972644,3.06964774234,1.0,614.935113807,-1.19956200729
51,1.28183013355,0.983793992234,53.7040621408,2.02733759919,0.427393990394,24.5975270899,3.4162998298,0.250145299857,0.981509753972,3.0639941982,1.0,614.964358094,-1.49939857952
52,1.29855214518,0.991960825641,53.398990272,2.03253661489,0.428956036501,24.8177548979,3.43044160326,0.251992511084,0.979222102189,3.05847369192,0.0,0.0,0.0
53,1.31500042753,1.00016557021,53.0957971858,2.03761489392,0.43150286742,25.0334802294,3.44425286144,0.254534957209,0.976782460375,3.05271231044,0.0,0.0,0.0
54,1.33118047122,1.0084054049,52.7945631714,2.04257492669,0.434048376285,25.244785132,3.45774591763,0.257097258397,0.97423054996,3.04689585834,0.0,0.0,0.0
55,1.34709772414,1.01667761897,52.495360458,2.04741918022,0.43659129364,25.4517532523,3.47093247333,0.259678468505,0.97157042045,3.04102795923,0.0,0.0,0.0
56,1.3627575835,1.02497960875,52.1982537107,2.05215009457,0.439130406765,25.6544694016,3.48382365668,0.262277661459,0.96880612197,3.03511204222,0.0,0.0,0.0
57,1.37816538843,1.03330887428,51.9033005118,2.05677007976,0.440630214485,25.8530191645,3.49643005779,0.264150139885,0.966006701263,3.02942337221,0.0,0.0,0.0
58,1.39332641381,1.04166301611,51.6105518152,2.06128151305,0.443149935616,26.0474885574,3.50876176157,0.266770296976,0.963051639053,3.02343698374,0.0,0.0,0.0
59,1.40824586445,1.0500397318,51.3200523896,2.06568673653,0.445662512638,26.2379637206,3.52082837781,0.269405588781,0.96000458933,3.01741207348,0.0,0.0,0.0
60,1.42292887054,1.05843681278,51.0318412305,2.0699880552,0.448166942595,26.4245306534,3.5326390695,0.272055163149,0.956869482234,3.01135138393,0.0,0.0,0.0
61,1.43738048371,1.06685214113,50.7459519521,2.07418773531,0.449594349627,26.6072749819,3.54420257898,0.273924924324,0.953738097338,3.0055951994,0.0,0.0,0.0
62,1.45160567332,1.07528368629,50.4624131681,2.0782880029,0.452071223333,26.7862817508,3.55552725201,0.27658758163,0.950444490195,2.9994877217,0.0,0.0,0.0
63,1.46560932382,1.08372950197,50.181248842,2.08229104273,0.4545372024,26.9616352485,3.56662106041,0.27926188345,0.947074404076,2.99335211049,0.0,0.0,0.0
64,1.47939623264,1.09218772319,49.9024786184,2.08619899744,0.455898182642,27.133418856,3.57749162326,0.281115204864,0.943737988995,2.98758040971,0.0,0.0,0.0
65,1.49297110798,1.10065656312,49.626118146,2.09001396677,0.458331465617,27.3017149112,3.58814622613,0.283796958501,0.940232287789,2.98141296533,0.0,0.0,0.0
66,1.50633856776,1.10913431021,49.3521793697,2.09373800717,0.460751494134,27.4666046002,3.59859183955,0.286487857323,0.936661036001,2.97522390302,0.0,0.0,0.0
67,1.51950313845,1.11761932537,49.0806708131,2.09737313143,0.463157562175,27.6281678614,3.608835136,0.28918715376,0.933027687348,2.96901508291,0.0,0.0,0.0
68,1.53246925468,1.12611003925,48.8115978376,2.10092130864,0.464421761854,27.7864833094,3.61888250591,0.291008389005,0.929468212686,2.96325158271,0.0,0.0,0.0
69,1.54524125859,1.13460494936,48.5449628957,2.10438446404,0.466789427544,27.9416281663,3.62874007239,0.293708155896,0.925727393507,2.95702754157,0.0,0.0,0.0
70,1.55782340002,1.14310261764,48.280765758,2.1077644792,0.469141218384,28.0936782118,3.63841370525,0.296413981371,0.921934411785,2.95078904589,0.0,0.0,0.0
71,1.57021983662,1.1516016678,48.0190037329,2.11106319224,0.470323808217,28.2427077411,3.64790903409,0.298197765429,0.918245456177,2.94505890452,0.0,0.0,0.0
72,1.58243463446,1.16010078303,47.7596718659,2.11428239815,0.472633656303,28.388789535,3.65723146055,0.300899032654,0.914364278826,2.93881588713,0.0,0.0,0.0
73,1.59447176838,1.16859870344,47.5027631358,2.11742384913,0.47492600356,28.5319948339,3.66638616968,0.303604125724,0.910440078312,2.93256299778,0.0,0.0,0.0
74,1.60633512298,1.17709422389,47.2482686276,2.12048925514,0.477200365008,28.6723933253,3.67537814085,0.306312375789,0.906475711782,2.92630153104,0.0,0.0,0.0
75,1.61802849347,1.18558619174,46.9961777011,2.12348028435,0.478269508761,28.810053134,3.68421215781,0.308037817561,0.902655011739,2.92063532024,0.0,0.0,0.0
76,1.62955558694,1.19407350481,46.7464781417,2.12639856382,0.480498050973,28.9450408217,3.69289281835,0.310735232403,0.898625554392,2.91438143737,0.0,0.0,0.0
77,1.64092002325,1.20255510917,46.4991563103,2.12924568004,0.482707310082,29.0774213869,3.69865947057,0.313433694838,0.895547347015,2.90902385961,0.0,0.0,0.0
78,1.65212533655,1.21102999728,46.2541972738,2.13202317965,0.48368465758,29.2072582743,3.6958274288,0.315102828078,0.895710549592,2.90713334421,0.0,0.0,0.0
79,1.66317497651,1.21949720603,46.0115849317,2.13473257014,0.485845737752,29.3346133852,3.69299976116,0.31778590688,0.895713533221,2.90465533578,0.0,0.0,0.0
80,1.67407230996,1.22795581502,45.7713021299,2.13737532061,0.487986449034,29.4595470937,3.69017546751,0.320468007466,0.895749398355,2.90223237725,0.0,0.0,0.0
81,1.68482062208,1.23640494465,45.5333307732,2.13995286244,0.488868825996,29.582118262,3.68735361844,0.322073296113,0.896007567568,2.90053996048,0.0,0.0,0.0
82,1.69542311816,1.24484375449,45.2976519224,2.14246659015,0.490959402714,29.7023842624,3.68453335006,0.324735646599,0.896106653656,2.89823753538,0.0,0.0,0.0
83,1.70588292508,1.25327144169,45.0642458893,2.14491786212,0.493028709341,29.8204009985,3.68171385924,0.327395069636,0.89623715131,2.89599238284,0.0,0.0,0.0
84,1.71620309302,1.26168723944,44.8330923196,2.14730800141,0.49381352821,29.9362229312,3.67889439919,0.32892931,0.896585149763,2.89450302329,0.0,0.0,0.0
85,1.7263865969,1.27009041535,44.6041702786,2.14963829655,0.495831097154,30.0499031014,3.67607427541,0.331564787491,0.896775593415,2.89238196705,0.0,0.0,0.0
86,1.73643633814,1.27848027015,44.3774583211,2.15191000232,0.497826655818,30.1614931591,3.67325284193,0.334195459435,0.896995834028,2.89031996966,0.0,0.0,0.0
87,1.74635514626,1.2868561362,44.1529345614,2.15412434057,0.49851184064,30.27104339,3.67042949777,0.335651770003,0.897428166284,2.88903721425,0.0,0.0,0.0
88,1.75614578049,1.29521737626,43.9305767373,2.15628250099,0.500454365698,30.3786027443,3.66760368375,0.338254463806,0.897704849508,2.88710200597,0.0,0.0,0.0
89,1.76581093153,1.30356338221,43.710362266,2.15838564193,0.502374280535,30.4842188665,3.6647748795,0.340850540862,0.898009610634,2.88522723352,0.0,0.0,0.0
90,1.77535322297,1.31189357376,43.492268302,2.16043489116,0.50427140784,30.5879381234,3.66194260068,0.34343945373,0.898341875644,2.88341332433,0.0,0.0,0.0
91,1.78477521305,1.32020739733,43.2762717845,2.16243134663,0.504824053957,30.6898056348,3.65910639642,0.344786579654,0.898878092115,2.8824072154,0.0,0.0,0.0
92,1.79407939624,1.32850432497,43.062349484,2.16437607727,0.506666818761,30.789865303,3.65626584697,0.347342439134,0.899261928545,2.88072254725,0.0,0.0,0.0
93,1.80326820476,1.33678385321,42.8504780446,2.16627012372,0.50848635471,30.8881598427,3.65342056145,0.3498894051,0.89967146177,2.87909962024,0.0,0.0,0.0
94,1.81234401024,1.34504550215,42.6406340214,2.16811449908,0.508936140101,30.9847308114,3.65057017583,0.351143790944,0.900278478559,2.87830362982,0.0,0.0,0.0
95,1.82130912514,1.35328881434,42.4327939188,2.16991018965,0.510700587748,31.0796186374,3.64771435105,0.353654025798,0.90073581677,2.8768108474,0.0,0.0,0.0
96,1.83016580435,1.36151335392,42.2269342215,2.17165815559,0.512441466703,31.1728626504,3.64485277126,0.356153699045,0.901217014019,2.87538034289,0.0,0.0,0.0
97,1.83891624663,1.36971870572,42.0230314246,2.17335933173,0.514158677492,31.2645011101,3.64198514216,0.358642303586,0.901721466144,2.87401228238,0.0,0.0,0.0
98,1.84756259609,1.37790447435,41.8210620616,2.17501462815,0.514472845959,31.3545712346,3.63911118952,0.359768912617,0.902414138394,2.8734939258,0.0,0.0,0.0
99,1.85610694367,1.38607028345,41.6210027274,2.17662493093,0.516134283914,31.4431092294,3.63623065773,0.362216159414,0.902961370816,2.87225631005,0.0,0.0,0.0
100,1.86455132842,1.39421577479,41.4228301043,2.17819110275,0.517771828471,31.5301503139,3.63334330857,0.364650746724,0.90353001377,2.87108126785,0.0,0.0,0.0
101,1.87289773898,1.40234060761,41.2265209805,2.17971398358,0.517981670086,31.6157287494,3.63044891991,0.365671452706,0.90427980091,2.87077072007,0.0,0.0,0.0
102,1.88114811491,1.41044445782,41.0320522696,2.18119439131,0.519563127821,31.6998778656,3.62754728463,0.368061351874,0.904887477331,2.869725578,0.0,0.0,0.0
103,1.88930434795,1.41852701734,40.8394010275,2.18263312232,0.521120540128,31.782630087,3.62463820959,0.370437061,0.905514738617,2.8687428671,0.0,0.0,0.0
104,1.8973682834,1.42658799349,40.6485444672,2.18403095212,0.522653863708,31.8640169585,3.62172151458,0.372798111533,0.906160989458,2.86782254364,0.0,0.0,0.0
105,1.90534172127,1.43462710819,40.4594599742,2.18538863593,0.522726998622,31.94406917,3.6187970315,0.373674592952,0.906978545909,2.86778372355,0.0,0.0,0.0
106,1.91322641755,1.44264409751,40.2721251182,2.18670690922,0.52420401566,32.0228165814,3.61586460345,0.375986778535,0.907658956223,2.86699189424,0.0,0.0,0.0
107,1.92102408541,1.45063871099,40.0865176637,2.18798648831,0.52565687451,32.1002882462,3.61292408399,0.378282852983,0.908356576152,2.86626199168,0.0,0.0,0.0
108,1.92873639636,1.45861071113,39.9026155812,2.18922807085,0.527085556536,32.1765124346,3.60997533639,0.380562369533,0.909070826836,2.86559387424,0.0,0.0,0.0
109,1.93636498141,1.46655987284,39.7203970542,2.19043233642,0.527022020647,32.2515166573,3.60701823292,0.381286200288,0.909946413932,2.8658210401,0.0,0.0,0.0
110,1.9439114321,1.47448598289,39.5398404891,2.19159994698,0.528394380539,32.3253276861,3.60405265429,0.383512935614,0.910690122591,2.86527922343,0.0,0.0,0.0
111,1.95137730164,1.48238883946,39.3609245212,2.19273154738,0.529742562538,32.3979715761,3.601078489,0.385721740509,0.911448747309,2.8647984597,0.0,0.0,0.0
112,1.95876410592,1.49026825163,39.1836280203,2.19382776585,0.531066568444,32.4694736871,3.59809563279,0.387912190614,0.912221731353,2.86437852401,0.0,0.0,0.0
113,1.96607332456,1.49812403897,39.0079300961,2.19488921449,0.532366404541,32.5398587033,3.59510398816,0.390083866462,0.913008523804,2.86401917273,0.0,0.0,0.0
114,1.97330640189,1.50595603106,38.8338101032,2.19591648969,0.532134617899,32.6091506534,3.5921034639,0.390609696175,0.9139440287,2.86456799512,0.0,0.0,0.0
115,1.98046474792,1.51376406715,38.6612476432,2.19691017259,0.533378334294,32.6773729303,3.58909397457,0.392724073399,0.914754706235,2.86433137083,0.0,0.0,0.0
116,1.98754973925,1.52154799565,38.4902225701,2.1978708295,0.534597948751,32.7445483085,3.58607544019,0.39481840497,0.915577576294,2.86415431934,0.0,0.0,0.0
117,1.99456271999,1.52930767383,38.3207149909,2.19879901234,0.53579348366,32.8106989639,3.58304778578,0.396892294859,0.916412114675,2.86403653032,0.0,0.0,0.0
118,2.00150500268,1.53704296744,38.1527052685,2.19969525903,0.536964964943,32.8758464902,3.58001094101,0.398945352186,0.917257803898,2.8639776785,0.0,0.0,0.0
119,2.00837786911,1.54475375034,37.9861740228,2.20056009388,0.536566121845,32.9400119165,3.57696483991,0.39926242235,0.918239751553,2.86483508424,0.0,0.0,0.0
120,2.01518257117,1.55243990417,37.821102132,2.20139402797,0.537681893099,33.0032157239,3.57390942049,0.401254082477,0.919104128819,2.86489456275,0.0,0.0,0.0
