,theta i [rad],r orb [AU],v orb [km s-1],ang orb [rad],r L1 [AU],v i [km s-1],ang i [rad],a p [AU],e p,theta p i [rad],flag impact,v imp [km s-1],ang imp [rad]
0,0.0,0.72,65.8647800854,1.57079632679,0.339459462989,10.7899086974,1.57079632679,0.173595497798,0.9554623668,3.14159265359,0.0,0.0,0.0
1,0.0314749859677,0.720133754892,65.8571337212,1.582599142,0.339522524605,10.8056674866,1.64279126985,0.173640044171,0.955560423076,3.14494708077,0.0,0.0,0.0
2,0.0629266069621,0.720534787863,65.834219574,1.59439137019,0.33971160021,10.852744508,1.71440690721,0.173773643954,0.955853579806,3.1482746116,0.0,0.0,0.0
3,0.0943316160532,0.721202405401,65.7961122333,1.60616247888,0.33930443851,10.9305509693,1.78527807416,0.173618125006,0.956431411023,3.15152654131,0.0,0.0,0.0
4,0.125667001323,0.722135457005,65.7429351961,1.61790204407,0.339743411737,11.038135386,1.85506656838,0.173928537665,0.957102244328,3.15471397329,0.0,0.0,0.0
5,0.156910100038,0.723332343149,65.6748596535,1.62959980291,0.340306511324,11.1742250691,1.92347155593,0.174327173106,0.957952920288,3.15779694707,0.0,0.0,0.0
6,0.188038707145,0.72479102621,65.5921028299,1.6412457038,0.34099277863,11.3372782886,1.99023685306,0.174813686111,0.958974830771,3.16075143758,0.0,0.0,0.0
7,0.219031179626,0.726509044281,65.4949258994,1.65282995445,0.341801055401,11.5255424757,2.05515484346,0.175387659883,0.960157734152,3.16355473878,0.0,0.0,0.0
8,0.249866532686,0.728483527578,65.3836315269,1.66434306618,0.342000778752,11.7371139085,2.11806720372,0.175663822376,0.961571204785,3.16613124624,0.0,0.0,0.0
9,0.280524528553,0.730711217237,65.2585610748,1.67577589477,0.343046611035,11.9699949925,2.17886293921,0.176409106242,0.963036370148,3.16856495867,0.0,0.0,0.0
10,0.310985756371,0.733188486233,65.1200915284,1.68711967715,0.344209613196,12.2221462149,2.23747440559,0.177239958123,0.964623377509,3.17078953483,0.0,0.0,0.0
11,0.341231702646,0.735911362106,64.9686321926,1.6983660637,0.344751272284,12.4915309363,2.29387203676,0.17776397175,0.966387974858,3.1727203558,0.0,0.0,0.0
12,0.371244811781,0.738875551209,64.8046212174,1.70950714589,0.346139901414,12.7761521786,2.34805843935,0.178761080199,0.968168909151,3.17447744897,0.0,0.0,0.0
13,0.401008536433,0.742076464141,64.6285220061,1.72053547926,0.347639428192,13.0740813754,2.40006239222,0.179841351938,0.970024453047,3.17598440974,0.0,0.0,0.0
14,0.430507377601,0.745509242068,64.4408195624,1.73144410153,0.34850132092,13.3834796189,2.44993314316,0.180603112913,0.971996629805,3.17715296854,0.0,0.0,0.0
15,0.459726914558,0.749168783614,64.2420168278,1.74222654606,0.350212037538,13.7026122843,2.4977352542,0.181843688517,0.973947239012,3.17812975281,0.0,0.0,0.0
16,0.488653824858,0.753049772012,64.0326310591,1.75287685067,0.351272469787,14.0298580704,2.54354412748,0.182756517349,0.975972478946,3.17875114256,1.0,613.899933771,1.33449410478
17,0.51727589485,0.757146702257,63.8131902898,1.76338956208,0.353183550362,14.3637135109,2.58744225263,0.18415289584,0.977951435855,3.17917530141,1.0,613.929919172,1.20906911213
18,0.545582021189,0.761453907973,63.584229915,1.77375973615,0.354430501275,14.7027939509,2.62951615401,0.185211233106,0.979963923817,3.17923652581,1.0,613.952343416,1.10745011437
19,0.573562203887,0.765965587754,63.3462894347,1.78398293424,0.355763800091,15.045831855,2.66985397753,0.186337982961,0.981944408896,3.17901706943,1.0,613.975936359,1.02012268584
20,0.601207532231,0.770675830866,63.0999093793,1.7940552162,0.357951540636,15.3916731945,2.70854363812,0.187956832425,0.983844797572,3.17859992803,1.0,614.00933664,0.944010777794
21,0.628510162702,0.775578641858,62.8456284516,1.80397312986,0.359452367127,15.7392724897,2.74567143954,0.189220242661,0.985721747318,3.17782452561,1.0,614.035005168,0.869955059249
22,0.655463291897,0.780667964281,62.5839808857,1.81373369798,0.361029632717,16.0876870094,2.7813210859,0.190547253291,0.98752474236,3.17677728553,1.0,614.061598203,0.799791627568
23,0.682061123574,0.785937703122,62.3154940473,1.8233344027,0.363466689118,16.4360704692,2.81557300564,0.192376912422,0.989219497184,3.17553772665,1.0,614.097660732,0.73441983008
24,0.708298831212,0.791381745934,62.0406862775,1.83277316787,0.36519218065,16.7836665094,2.84850392216,0.193831617436,0.990842312674,3.17396000129,1.0,614.125845619,0.669017569848
25,0.734172517337,0.796993982685,61.7600649765,1.84204833985,0.366984219855,17.1298021588,2.8801866147,0.195345110601,0.992357248131,3.17212800384,1.0,614.154722617,0.60528314399
26,0.759679168909,0.802768323981,61.4741249411,1.85115866671,0.368839503818,17.4738814046,2.91068982116,0.196915730941,0.993755012765,3.17004909382,1.0,614.184218837,0.542827008347
27,0.784816611473,0.808698718037,61.1833469297,1.8601032767,0.371564279465,17.8153789946,2.94007824732,0.199006185452,0.995017192571,3.16778843687,1.0,614.222753164,0.482476718959
28,0.809583461135,0.814779166055,60.8881964618,1.86888165584,0.373542404071,18.1538345119,2.96841265081,0.200692560172,0.996159009081,3.16523396127,1.0,614.253252184,0.421554607397
29,0.833979076106,0.821003736281,60.5891228304,1.87749362536,0.375574285386,18.4888467766,2.99574997748,0.202431389204,0.997161349561,3.16245648125,1.0,614.284166219,0.361152730432
30,0.858003506956,0.827366576402,60.2865583295,1.88593931857,0.377656819285,18.8200685755,3.02214353099,0.204221080503,0.998018746537,3.15946460068,1.0,614.315433179,0.301083243875
31,0.88165744778,0.833861924764,59.9809176637,1.89421915821,0.379786966367,19.1472017496,3.04764316362,0.206060064609,0.998726620378,3.15626701449,1.0,614.346993929,0.241175748321
32,0.904942187858,0.840484120249,59.6725975338,1.90233383397,0.381961755989,19.4699926271,3.07229547748,0.207946796171,0.999281238716,3.15287244067,1.0,614.378792339,0.181270295484
33,0.927859563376,0.847227610639,59.3619763936,1.91028428026,0.384178289556,19.7882277798,3.09614402776,0.209879755147,0.999679672221,3.1492895611,1.0,614.4107753,0.121211657875
34,0.950411911243,0.854086960003,59.0494143405,1.9180716548,0.386433743318,20.1017301173,3.11922952468,0.21185744788,0.999919747778,3.1455269704,1.0,614.442892723,0.0608442573184
35,0.972602024307,0.861056854932,58.7352531363,1.92569731798,0.388725370605,20.4103552871,3.14159002942,0.21387840795,0.999999999999,3.14159313248,1.0,614.475097513,7.28801992533e-06
36,0.994433107457,0.868132109447,58.4198163535,1.9331628127,0.391050503421,20.7139883562,3.1632611409,0.215941196753,0.999919621851,3.13749634423,1.0,614.507345526,-0.061470383665
37,1.01590873644,0.875307669178,58.1034096088,1.94046984538,0.393406553688,21.0125407788,3.1842761737,0.218044403998,0.999678415146,3.13324470542,1.0,614.539595508,-0.123775992311
38,1.03703281859,0.882578614615,57.7863208831,1.94762026798,0.395791014042,21.3059476197,3.20466632519,0.220186648028,0.999276741438,3.12884609447,1.0,614.571809022,-0.187119864792
39,1.0578095548,0.889940163231,57.4688209269,1.95461606059,0.398201458109,21.5941650058,3.22446083106,0.222366575906,0.998715473873,3.12430814954,1.0,614.603950361,-0.251744382243
40,1.07824340462,0.897387671167,57.1511637113,1.96145931545,0.400635540575,21.8771678129,3.24368711075,0.224582863473,0.997995950341,3.11963825398,1.0,614.635986462,-0.31793604882
41,1.09833905279,0.904916634014,56.8335869378,1.96815222172,0.403090996833,22.1549475508,3.2623709018,0.226834215224,0.997119928303,3.11484352603,1.0,614.667886798,-0.386042466985
42,1.11810137852,0.912522687132,56.5163125797,1.97469705142,0.405565642436,22.4275104455,3.28053638429,0.229119364127,0.996089541491,3.1099308119,1.0,614.699623276,-0.456497265086
43,1.13753542602,0.920201605146,56.1995474655,1.98109614616,0.408057372165,22.6948756866,3.29820629509,0.231437071256,0.99490725873,3.10490668216,1.0,614.731170132,-0.52985840013
44,1.15664637788,0.927949301184,55.8834838732,1.98735190496,0.410564159003,22.9570738467,3.31540203356,0.233786125431,0.993575844934,3.09977743051,1.0,614.762503812,-0.606870149662
45,1.17543953035,0.93576182567,55.56830014,1.99346677311,0.412147354383,23.2141454491,3.33214375872,0.235553212203,0.992113739029,3.09465655796,1.0,614.785661803,-0.686715872303
46,1.19392026998,0.943635364477,55.2541612901,1.99944323168,0.414670599345,23.4661396635,3.34845047809,0.237951288175,0.990496479228,3.08934745955,1.0,614.816537555,-0.774269962131
47,1.21209405275,0.951566237015,54.9412196542,2.00528378804,0.417203218779,23.7131131365,3.36434012976,0.240377041227,0.98874006024,3.08395079497,1.0,614.847141366,-0.870361813513
48,1.22996638499,0.959550894019,54.6296154876,2.01099096736,0.419743487928,23.9551289366,3.37982965788,0.242829366775,0.986848078565,3.0784717747,1.0,614.877457401,-0.979235555014
49,1.24754280535,0.967585914829,54.3194775918,2.01656730455,0.422289752378,24.1922555963,3.39493508136,0.245307185084,0.984824266218,3.07291535435,1.0,614.907471488,-1.10998027871
50,1.26482886904,0.975668004751,54.010923915,2.02201533719,0.42484042626,24.4245662581,3.40967155762,0.247809440625,0.982672465447,3.06728624222,1.0,614.937171021,-1.29200059647
51,1.28183013355,0.983793992234,53.7040621408,2.02733759919,0.42640921163,24.6521379092,3.42405344116,0.249659666006,0.980434421916,3.06177672613,0.0,0.0,0.0
52,1.29855214518,0.991960825641,53.398990272,2.03253661489,0.428956036501,24.8750506866,3.43809433692,0.252196424807,0.978043019873,3.05602985943,0.0,0.0,0.0
53,1.31500042753,1.00016557021,53.0957971858,2.03761489392,0.43150286742,25.0933872649,3.45180714987,0.254754399939,0.975535796335,3.05022332331,0.0,0.0,0.0
54,1.33118047122,1.0084054049,52.7945631714,2.04257492669,0.434048376285,25.3072323085,3.46520413077,0.257332626319,0.972916812846,3.04436092164,0.0,0.0,0.0
55,1.34709772414,1.01667761897,52.495360458,2.04741918022,0.435573598332,25.5166719772,3.47829691778,0.259209022128,0.970247272036,3.03869362428,0.0,0.0,0.0
56,1.3627575835,1.02497960875,52.1982537107,2.05215009457,0.438104401157,25.7217934948,3.49109657542,0.261812903614,0.967422267319,3.0327457268,0.0,0.0,0.0
57,1.37816538843,1.03330887428,51.9033005118,2.05677007976,0.440630214485,25.922684762,3.50361363029,0.264434073174,0.964497876499,3.0267524894,0.0,0.0,0.0
58,1.39332641381,1.04166301611,51.6105518152,2.06128151305,0.443149935616,26.1194340187,3.51585810426,0.267071644444,0.961478126971,3.02071696136,0.0,0.0,0.0
59,1.40824586445,1.0500397318,51.3200523896,2.06568673653,0.444611421822,26.3121295395,3.52783954484,0.268955114928,0.958446269572,3.01495358096,0.0,0.0,0.0
60,1.42292887054,1.05843681278,51.0318412305,2.0699880552,0.447107446292,26.5008593725,3.53956705368,0.271610152136,0.955253619366,3.0088587437,0.0,0.0,0.0
61,1.43738048371,1.06685214113,50.7459519521,2.07418773531,0.449594349627,26.6857111109,3.55104931294,0.274278851373,0.951977579612,3.00273009411,0.0,0.0,0.0
62,1.45160567332,1.07528368629,50.4624131681,2.0782880029,0.452071223333,26.8667716878,3.56229460945,0.276960393774,0.948621983082,2.99657007062,0.0,0.0,0.0
63,1.46560932382,1.08372950197,50.181248842,2.08229104273,0.453452388091,27.0441272049,3.57331085753,0.278833152197,0.945294244558,2.99076129842,0.0,0.0,0.0
64,1.47939623264,1.09218772319,49.9024786184,2.08619899744,0.455898182642,27.2178627841,3.58410562015,0.281524543266,0.941797125037,2.98456324861,0.0,0.0,0.0
65,1.49297110798,1.10065656312,49.626118146,2.09001396677,0.458331465617,27.3880624354,3.59468612832,0.28422622956,0.938231642801,2.97834066747,0.0,0.0,0.0
66,1.50633856776,1.10913431021,49.3521793697,2.09373800717,0.459641249586,27.5548089506,3.60505929957,0.286076787396,0.934724487921,2.97253036944,0.0,0.0,0.0
67,1.51950313845,1.11761932537,49.0806708131,2.09737313143,0.462038824118,27.7181838111,3.61523175488,0.288782859076,0.931039459823,2.96628327628,0.0,0.0,0.0
68,1.53246925468,1.12611003925,48.8115978376,2.10092130864,0.464421761854,27.8782671133,3.62520983484,0.291496804351,0.92729653828,2.96001750412,0.0,0.0,0.0
69,1.54524125859,1.13460494936,48.5449628957,2.10438446404,0.466789427544,28.0351375033,3.63499961419,0.294217899225,0.923499019413,2.95373471684,0.0,0.0,0.0
70,1.55782340002,1.14310261764,48.280765758,2.1077644792,0.467996971527,28.1888721295,3.64460691603,0.296029180264,0.919800384068,2.94794810616,0.0,0.0,0.0
71,1.57021983662,1.1516016678,48.0190037329,2.11106319224,0.470323808217,28.3395466024,3.65403732468,0.298747866883,0.91591010232,2.94165589675,0.0,0.0,0.0
72,1.58243463446,1.16010078303,47.7596718659,2.11428239815,0.472633656303,28.4872349672,3.66329619807,0.301471427119,0.911974648841,2.93535147005,0.0,0.0,0.0
73,1.59447176838,1.16859870344,47.5027631358,2.11742384913,0.473756235095,28.6320096805,3.67238867902,0.303240014358,0.908168299594,2.92960832759,0.0,0.0,0.0
74,1.60633512298,1.17709422389,47.2482686276,2.12048925514,0.476022092519,28.773941599,3.68131970608,0.305956255613,0.904158277433,2.92330429665,0.0,0.0,0.0
75,1.61802849347,1.18558619174,46.9961777011,2.12348028435,0.478269508761,28.9130999722,3.69009402361,0.308675191285,0.900111703759,2.91699222449,0.0,0.0,0.0
76,1.62955558694,1.19407350481,46.7464781417,2.12639856382,0.479302782206,29.0495524439,3.69567358985,0.310392895827,0.897294213408,2.91229224084,0.0,0.0,0.0
77,1.64092002325,1.20255510917,46.4991563103,2.12924568004,0.481503551221,29.1833650538,3.69289342035,0.313099804997,0.89722295529,2.9096957513,0.0,0.0,0.0
78,1.65212533655,1.21102999728,46.2541972738,2.13202317965,0.48368465758,29.3146022487,3.69011756682,0.315807316661,0.897185372507,2.90715266436,0.0,0.0,0.0
79,1.66317497651,1.21949720603,46.0115849317,2.13473257014,0.484625019834,29.4433268945,3.68734498702,0.317466303507,0.897369405239,2.9053211187,0.0,0.0,0.0
80,1.67407230996,1.22795581502,45.7713021299,2.13737532061,0.486757264041,29.569600294,3.68457471376,0.320157268361,0.897396908717,2.90289589857,0.0,0.0,0.0
81,1.68482062208,1.23640494465,45.5333307732,2.13995286244,0.488868825996,29.693482204,3.68180584938,0.322846823095,0.897456747249,2.90052663035,0.0,0.0,0.0
82,1.69542311816,1.24484375449,45.2976519224,2.14246659015,0.489713312877,29.8150308581,3.67903756066,0.324439593879,0.897733893562,2.89889541557,0.0,0.0,0.0
83,1.70588292508,1.25327144169,45.0642458893,2.14491786212,0.49177418338,29.93430299,3.67626907403,0.32710825605,0.897855757951,2.89664823015,0.0,0.0,0.0
84,1.71620309302,1.26168723944,44.8330923196,2.14730800141,0.49381352821,30.0513538603,3.6734996712,0.329773568459,0.898008441045,2.89445909009,0.0,0.0,0.0
85,1.7263865969,1.27009041535,44.6041702786,2.14963829655,0.494559735383,30.1662372807,3.6707286852,0.331292948857,0.898373450524,2.89303274225,0.0,0.0,0.0
86,1.73643633814,1.27848027015,44.3774583211,2.15191000232,0.496546895794,30.2790056442,3.66795549655,0.33393318786,0.898584811494,2.89096898705,0.0,0.0,0.0
87,1.74635514626,1.2868561362,44.1529345614,2.15412434057,0.49851184064,30.3897099531,3.66517952989,0.336568205425,0.898825342853,2.88896494043,0.0,0.0,0.0
88,1.75614578049,1.29521737626,43.9305767373,2.15628250099,0.499157851814,30.4983998484,3.66240025074,0.338007336981,0.899272645954,2.88774660694,0.0,0.0,0.0
89,1.76581093153,1.30356338221,43.710362266,2.15838564193,0.501069412291,30.6051236413,3.65961716252,0.340613258203,0.899568302765,2.88587039141,0.0,0.0,0.0
90,1.77535322297,1.31189357376,43.492268302,2.16043489116,0.502958201066,30.7099283415,3.65682980389,0.343212150637,0.899891388338,2.88405514531,0.0,0.0,0.0
91,1.78477521305,1.32020739733,43.2762717845,2.16243134663,0.503502525038,30.8128596893,3.65403774618,0.344564486394,0.900415212996,2.88304668576,0.0,0.0,0.0
92,1.79407939624,1.32850432497,43.062349484,2.16437607727,0.505336984609,30.9139621861,3.65124059104,0.347130412883,0.900789739201,2.88136092286,0.0,0.0,0.0
93,1.80326820476,1.33678385321,42.8504780446,2.16627012372,0.507148232741,31.0132791247,3.64843796827,0.349687564986,0.901189892656,2.87973701732,0.0,0.0,0.0
94,1.81234401024,1.34504550215,42.6406340214,2.16811449908,0.508936140101,31.1108526209,3.64562953378,0.352235413727,0.901615077684,2.87817524409,0.0,0.0,0.0
95,1.82130912514,1.35328881434,42.4327939188,2.16991018965,0.509345944297,31.2067236425,3.64281496782,0.353467335743,0.902232202247,2.87744560692,0.0,0.0,0.0
96,1.83016580435,1.36151335392,42.2269342215,2.17165815559,0.51107859048,31.30093204,3.63999397311,0.355977343426,0.902703835048,2.87601450865,0.0,0.0,0.0
97,1.83891624663,1.36971870572,42.0230314246,2.17335933173,0.512787587703,31.3935165765,3.63716627336,0.358476379215,0.9031986595,2.8746459815,0.0,0.0,0.0
98,1.84756259609,1.37790447435,41.8210620616,2.17501462815,0.513093562208,31.4845149564,3.6343316117,0.359607444164,0.903878601382,2.87412630807,0.0,0.0,0.0
99,1.85610694367,1.38607028345,41.6210027274,2.17662493093,0.51474682618,31.5739638555,3.63148974932,0.362065113049,0.904416098574,2.87288850482,0.0,0.0,0.0
100,1.86455132842,1.39421577479,41.4228301043,2.17819110275,0.516376217092,31.6618989477,3.62864046421,0.364510200796,0.90497494723,2.87171340865,0.0,0.0,0.0
101,1.87289773898,1.40234060761,41.2265209805,2.17971398358,0.516577925741,31.7483549339,3.62578354993,0.365534891878,0.905711885817,2.87140202163,0.0,0.0,0.0
102,1.88114811491,1.41044445782,41.0320522696,2.18119439131,0.518151271514,31.833365569,3.62291881452,0.367935238269,0.906309668786,2.87035711533,0.0,0.0,0.0
103,1.88930434795,1.41852701734,40.8394010275,2.18263312232,0.51970059317,31.9169636886,3.62004607951,0.370321453824,0.906926981329,2.8693747788,0.0,0.0,0.0
104,1.8973682834,1.42658799349,40.6485444672,2.18403095212,0.521225847706,31.9991812359,3.61716517886,0.372693064327,0.907563229268,2.86845496984,0.0,0.0,0.0
105,1.90534172127,1.43462710819,40.4594599742,2.18538863593,0.521290935457,32.0800492857,3.6142759582,0.373572831616,0.90836779529,2.86841595692,0.0,0.0,0.0
106,1.91322641755,1.44264409751,40.2721251182,2.18670690922,0.522759927481,32.1595980707,3.6113782739,0.37589546523,0.909038113726,2.86762494198,0.0,0.0,0.0
107,1.92102408541,1.45063871099,40.0865176637,2.18798648831,0.524204783715,32.2378570053,3.60847199237,0.378202021385,0.909725591048,2.8668959974,0.0,0.0,0.0
108,1.92873639636,1.45861071113,39.9026155812,2.18922807085,0.525625485761,32.3148547094,3.60555698932,0.380492047386,0.910429649434,2.86622898263,0.0,0.0,0.0
109,1.93636498141,1.46655987284,39.7203970542,2.19043233642,0.525553992753,32.390619032,3.60263314906,0.381218330367,0.911292126272,2.86645661307,0.0,0.0,0.0
110,1.9439114321,1.47448598289,39.5398404891,2.19159994698,0.526918418601,32.4651770727,3.59970036395,0.383455403784,0.912025563193,2.86591620481,0.0,0.0,0.0
111,1.95137730164,1.48238883946,39.3609245212,2.19273154738,0.528258689833,32.5385552048,3.59675853378,0.3856745542,0.912773869716,2.8654369962,0.0,0.0,0.0
112,1.95876410592,1.49026825163,39.1836280203,2.19382776585,0.529574808439,32.6107790955,3.59380756525,0.387875351139,0.913536490098,2.86501876301,0.0,0.0,0.0
113,1.96607332456,1.49812403897,39.0079300961,2.19488921449,0.529367157229,32.6818737277,3.59084737145,0.3884403224,0.914447624461,2.86550584994,0.0,0.0,0.0
114,1.97330640189,1.50595603106,38.8338101032,2.19591648969,0.530627154411,32.7518634194,3.58787787143,0.390584460349,0.915235144829,2.86521136842,0.0,0.0,0.0
115,1.98046474792,1.51376406715,38.6612476432,2.19691017259,0.531863054954,32.8207718439,3.58489898972,0.39270893461,0.916035346182,2.86497690261,0.0,0.0,0.0
116,1.98754973925,1.52154799565,38.4902225701,2.1978708295,0.533074877691,32.888622048,3.58191065599,0.394813337827,0.916847698719,2.86480215804,0.0,0.0,0.0
117,1.99456271999,1.52930767383,38.3207149909,2.19879901234,0.534262645154,32.9554364712,3.57891280461,0.396897267726,0.91767167921,2.86468682455,0.0,0.0,0.0
118,2.00150500268,1.53704296744,38.1527052685,2.19969525903,0.533887801859,33.0212369635,3.57590537436,0.397254248657,0.918631773202,2.86548590575,0.0,0.0,0.0
119,2.00837786911,1.54475375034,37.9861740228,2.20056009388,0.535019821801,33.0860448023,3.57288830803,0.399277271878,0.919475392623,2.86549007504,0.0,0.0,0.0
120,2.01518257117,1.55243990417,37.821102132,2.20139402797,0.536127899207,33.1498807099,3.56986155221,0.401278617023,0.920329115951,2.86555246308,0.0,0.0,0.0
