,theta i [rad],r orb [AU],v orb [km s-1],ang orb [rad],r L1 [AU],v i [km s-1],ang i [rad],a p [AU],e p,theta p i [rad],flag impact,v imp [km s-1],ang imp [rad]
0,0.0,0.72,65.8647800854,1.57079632679,0.338738742275,11.3856705273,1.57079632679,0.173666433534,0.95051361039,3.14159265359,0.0,0.0,0.0
1,0.0314749859677,0.720133754892,65.8571337212,1.582599142,0.338801670002,11.3999665358,1.63903205739,0.173710590893,0.950616714845,3.14514335997,0.0,0.0,0.0
2,0.0629266069621,0.720534787863,65.834219574,1.59439137019,0.338990344173,11.4426910653,1.70695545165,0.173843022736,0.950924999022,3.14866674141,0.0,0.0,0.0
3,0.0943316160532,0.721202405401,65.7961122333,1.60616247888,0.33930443851,11.5133603001,1.77426433437,0.174063608645,0.951435392013,3.15213577264,0.0,0.0,0.0
4,0.125667001323,0.722135457005,65.7429351961,1.61790204407,0.339743411737,11.6111895001,1.84067602075,0.1743721489,0.952142830709,3.15552402045,0.0,0.0,0.0
5,0.156910100038,0.723332343149,65.6748596535,1.62959980291,0.339582454932,11.7351233512,1.90593510526,0.174386454668,0.953139940376,3.15876749874,0.0,0.0,0.0
6,0.188038707145,0.72479102621,65.5921028299,1.6412457038,0.340267262094,11.8838746405,1.96981922019,0.174868652299,0.954216324874,3.16191163414,0.0,0.0,0.0
7,0.219031179626,0.726509044281,65.4949258994,1.65282995445,0.341073819127,12.0559681777,2.03214255006,0.175437503147,0.955463186605,3.16490227303,0.0,0.0,0.0
8,0.249866532686,0.728483527578,65.3836315269,1.66434306618,0.342000778752,12.2497868203,2.09275713736,0.176092510446,0.956868606152,3.16771793926,0.0,0.0,0.0
9,0.280524528553,0.730711217237,65.2585610748,1.67577589477,0.343046611035,12.4636167914,2.15155223593,0.176833110541,0.958419335322,3.17033887141,0.0,0.0,0.0
10,0.310985756371,0.733188486233,65.1200915284,1.68711967715,0.343475690794,12.695690021,2.20845210032,0.177267676375,0.960185025865,3.17267797982,0.0,0.0,0.0
11,0.341231702646,0.735911362106,64.9686321926,1.6983660637,0.344751272284,12.9442219157,2.26341266068,0.178174970549,0.961978284567,3.17485292078,0.0,0.0,0.0
12,0.371244811781,0.738875551209,64.8046212174,1.70950714589,0.345400286254,13.2074436274,2.31641752452,0.178769278015,0.963946735009,3.17670779195,0.0,0.0,0.0
13,0.401008536433,0.742076464141,64.6285220061,1.72053547926,0.346896608916,13.4836284757,2.36747369322,0.179839351536,0.965917695717,3.17838306388,0.0,0.0,0.0
14,0.430507377601,0.745509242068,64.4408195624,1.73144410153,0.34850132092,13.7711126348,2.41660730126,0.180990860942,0.967954352879,3.17979491685,0.0,0.0,0.0
15,0.459726914558,0.749168783614,64.2420168278,1.74222654606,0.349462118843,14.0683105139,2.46385960021,0.181816909294,0.970102175618,3.18084851156,0.0,0.0,0.0
16,0.488653824858,0.753049772012,64.0326310591,1.75287685067,0.351272469787,14.3737254483,2.50928332866,0.18312489056,0.972214544766,3.1817096318,0.0,0.0,0.0
17,0.51727589485,0.757146702257,63.8131902898,1.76338956208,0.352425645762,14.6859564041,2.55293954206,0.184097682661,0.974395024718,3.18219983495,0.0,0.0,0.0
18,0.545582021189,0.761453907973,63.584229915,1.77375973615,0.354430501275,15.0037014061,2.59489492482,0.185557438423,0.976516003249,3.18249519212,1.0,613.959623177,1.31924546862
19,0.573562203887,0.765965587754,63.3462894347,1.78398293424,0.355763800091,15.3257583558,2.63521957077,0.186671251295,0.97866362031,3.18241618077,1.0,613.982859892,1.18477485398
20,0.601207532231,0.770675830866,63.0999093793,1.7940552162,0.357180093364,15.6510238425,2.67398519639,0.187851095282,0.980769477126,3.18205456536,1.0,614.007172687,1.08161701502
21,0.628510162702,0.775578641858,62.8456284516,1.80397312986,0.359452367127,15.9784904412,2.71126373545,0.18952688945,0.982783800074,3.18150144822,1.0,614.041183497,0.996006704898
22,0.655463291897,0.780667964281,62.5839808857,1.81373369798,0.361029632717,16.3072429467,2.74712626492,0.190838724124,0.984768235827,3.18058400453,1.0,614.067389532,0.914970356233
23,0.682061123574,0.785937703122,62.3154940473,1.8233344027,0.362679964697,16.6364538723,2.78164220635,0.192211711126,0.986670494508,3.17939683535,1.0,614.094432902,0.839622424205
24,0.708298831212,0.791381745934,62.0406862775,1.83277316787,0.36519218065,16.965378491,2.8148787542,0.194091621499,0.98845541148,3.17802622376,1.0,614.130838554,0.770385224075
25,0.734172517337,0.796993982685,61.7600649765,1.84204833985,0.366984219855,17.293349637,2.84690048749,0.195587515747,0.990163160328,3.17631562743,1.0,614.159305988,0.701759226495
26,0.759679168909,0.802768323981,61.4741249411,1.85115866671,0.368839503818,17.6197724128,2.8777691245,0.197139714078,0.991756792782,3.17435577328,1.0,614.18838683,0.635413259484
27,0.784816611473,0.808698718037,61.1833469297,1.8601032767,0.370754771245,17.9441189423,2.90754339088,0.198746551384,0.993227720493,3.17215474829,1.0,614.218011426,0.570815205373
28,0.809583461135,0.814779166055,60.8881964618,1.86888165584,0.372726809316,18.26592324,2.93627897245,0.200406379212,0.994568340473,3.16972098718,1.0,614.248112711,0.507561882283
29,0.833979076106,0.821003736281,60.5891228304,1.87749362536,0.375574285386,18.5847762686,2.96402853213,0.202595761666,0.995763453653,3.16711926269,1.0,614.287061007,0.446375177912
30,0.858003506956,0.827366576402,60.2865583295,1.88593931857,0.377656819285,18.9003212091,2.99084177227,0.204363458524,0.996826632087,3.1642399766,1.0,614.317897023,0.384754650581
31,0.88165744778,0.833861924764,59.9809176637,1.89421915821,0.379786966367,19.2122489899,3.01676553039,0.206179530605,0.997742039721,3.16115395411,1.0,614.349024681,0.32368471502
32,0.904942187858,0.840484120249,59.6725975338,1.90233383397,0.381961755989,19.5202940783,3.04184389667,0.20804241529,0.998505716535,3.15787015665,1.0,614.380388476,0.262966957844
33,0.927859563376,0.847227610639,59.3619763936,1.91028428026,0.384178289556,19.8242305295,3.06611834413,0.20995057561,0.999114515927,3.15439750068,1.0,614.411935888,0.202420459237
34,0.950411911243,0.854086960003,59.0494143405,1.9180716548,0.386433743318,20.1238683132,3.0896278672,0.211902501349,0.99956605749,3.15074480612,1.0,614.44361738,0.14187449863
35,0.972602024307,0.861056854932,58.7352531363,1.92569731798,0.388725370605,20.4190499025,3.11240912276,0.213896709933,0.999858678099,3.14692075249,1.0,614.475386374,0.0811624788155
36,0.994433107457,0.868132109447,58.4198163535,1.9331628127,0.391050503421,20.7096471047,3.13449656976,0.215931747036,0.999991382122,3.1429338425,1.0,614.507199206,0.0201164450249
37,1.01590873644,0.875307669178,58.1034096088,1.94046984538,0.393406553688,20.9955581468,3.15592260656,0.218006187097,0.999963791498,3.13879237193,1.0,614.539015067,-0.0414383096391
38,1.03703281859,0.882578614615,57.7863208831,1.94762026798,0.395791014042,21.2767049911,3.17671770342,0.220118633673,0.999776096243,3.13450440543,1.0,614.570795934,-0.103689026036
39,1.0578095548,0.889940163231,57.4688209269,1.95461606059,0.398201458109,21.5530308587,3.19691052829,0.222267719537,0.999429005896,3.13007775773,1.0,614.602506484,-0.166842177101
40,1.07824340462,0.897387671167,57.1511637113,1.96145931545,0.400635540575,21.8244979706,3.21652806699,0.224452106763,0.998923702319,3.12551997939,1.0,614.634114001,-0.231131771682
41,1.09833905279,0.904916634014,56.8335869378,1.96815222172,0.403090996833,22.091085474,3.23559573593,0.226670486608,0.998261794152,3.12083834667,1.0,614.665588281,-0.296830240472
42,1.11810137852,0.912522687132,56.5163125797,1.97469705142,0.405565642436,22.3527875541,3.25413748829,0.228921579355,0.997445273186,3.116039855,1.0,614.696901524,-0.364263425677
43,1.13753542602,0.920201605146,56.1995474655,1.98109614616,0.408057372165,22.6096117023,3.27217591263,0.231204133955,0.996476472855,3.11113121563,1.0,614.728028229,-0.43383217144
44,1.15664637788,0.927949301184,55.8834838732,1.98735190496,0.410564159003,22.8615771503,3.28973232531,0.233516927683,0.995358028929,3.10611885479,1.0,614.758945086,-0.506044880557
45,1.17543953035,0.93576182567,55.56830014,1.99346677311,0.4130840529,23.1087134443,3.30682685652,0.235858765709,0.994092842513,3.10100891518,1.0,614.789630861,-0.581569117791
46,1.19392026998,0.943635364477,55.2541612901,1.99944323168,0.415615179283,23.3510591456,3.32347852949,0.238228480521,0.99268404542,3.09580725937,1.0,614.82006629,-0.661318338844
47,1.21209405275,0.951566237015,54.9412196542,2.00528378804,0.418155737528,23.5886606604,3.33970533462,0.240624931389,0.99113496785,3.09051947471,1.0,614.850233967,-0.746608685662
48,1.22996638499,0.959550894019,54.6296154876,2.01099096736,0.419743487928,23.821571182,3.35552429802,0.242406081021,0.989469569905,3.08528104427,1.0,614.872268582,-0.83694430577
49,1.24754280535,0.967585914829,54.3194775918,2.01656730455,0.422289752378,24.0498497272,3.37095154456,0.24484218361,0.987654042175,3.07984982484,1.0,614.90188529,-0.94022942803
50,1.26482886904,0.975668004751,54.010923915,2.02201533719,0.42484042626,24.2735602766,3.38600235669,0.247301568009,0.985709360305,3.07434794277,1.0,614.931191756,-1.06104299329
51,1.28183013355,0.983793992234,53.7040621408,2.02733759919,0.427393990394,24.4927710003,3.40069122896,0.249783195137,0.983639361288,3.06877995234,1.0,614.960176937,-1.21706223697
52,1.29855214518,0.991960825641,53.398990272,2.03253661489,0.429948990273,24.7075535542,3.41503191786,0.252286049284,0.9814479524,3.06315017224,0.0,0.0,0.0
53,1.31500042753,1.00016557021,53.0957971858,2.03761489392,0.43250403415,24.9179824581,3.42903748862,0.254809137427,0.979139091755,3.05746269489,0.0,0.0,0.0
54,1.33118047122,1.0084054049,52.7945631714,2.04257492669,0.434048376285,25.1241345381,3.44272035847,0.256645374712,0.97676145069,3.05193458755,0.0,0.0,0.0
55,1.34709772414,1.01667761897,52.495360458,2.04741918022,0.43659129364,25.3260884209,3.45609233621,0.259194459636,0.974234425003,3.04615795062,0.0,0.0,0.0
56,1.3627575835,1.02497960875,52.1982537107,2.05215009457,0.439130406765,25.5239240927,3.46916465958,0.261760748499,0.971602138521,3.0403349051,0.0,0.0,0.0
57,1.37816538843,1.03330887428,51.9033005118,2.05677007976,0.441664557695,25.7177225013,3.48194802945,0.264343332654,0.968868584037,3.03446873248,0.0,0.0,0.0
58,1.39332641381,1.04166301611,51.6105518152,2.06128151305,0.444192641331,25.9075652072,3.49445264199,0.266941322526,0.966037733211,3.02856253567,0.0,0.0,0.0
59,1.40824586445,1.0500397318,51.3200523896,2.06568673653,0.445662512638,26.0935340697,3.50668821797,0.268788793617,0.963183725791,3.02290920075,0.0,0.0,0.0
60,1.42292887054,1.05843681278,51.0318412305,2.0699880552,0.448166942595,26.2757109749,3.51866403056,0.271402562413,0.960175626079,3.0169477641,0.0,0.0,0.0
61,1.43738048371,1.06685214113,50.7459519521,2.07418773531,0.450662269682,26.454177597,3.53038893106,0.274029001561,0.957082058574,3.0109549007,0.0,0.0,0.0
62,1.45160567332,1.07528368629,50.4624131681,2.0782880029,0.453147583373,26.6290151843,3.54187137254,0.276667291713,0.953906812401,3.00493308829,0.0,0.0,0.0
63,1.46560932382,1.08372950197,50.181248842,2.08229104273,0.4545372024,26.8003043772,3.55311943229,0.278501669999,0.950746964258,2.99924084068,0.0,0.0,0.0
64,1.47939623264,1.09218772319,49.9024786184,2.08619899744,0.456991463639,26.9681250521,3.56414083266,0.281148177125,0.947425545972,2.9931852675,0.0,0.0,0.0
65,1.49297110798,1.10065656312,49.626118146,2.09001396677,0.459433223931,27.1325561788,3.57494296022,0.283804000312,0.944033536811,2.98710766696,0.0,0.0,0.0
66,1.50633856776,1.10913431021,49.3521793697,2.09373800717,0.461861738682,27.2936757073,3.58553288407,0.286468380327,0.940574448708,2.98101002151,0.0,0.0,0.0
67,1.51950313845,1.11761932537,49.0806708131,2.09737313143,0.463157562175,27.4515604656,3.59591737271,0.288273276791,0.937170082783,2.97532083797,0.0,0.0,0.0
68,1.53246925468,1.12611003925,48.8115978376,2.10092130864,0.465548999124,27.6062860789,3.60610291,0.290938829966,0.933593510296,2.96920693877,0.0,0.0,0.0
69,1.54524125859,1.13460494936,48.5449628957,2.10438446404,0.467925168227,27.7579268953,3.61609570984,0.293610577275,0.929960001871,2.96307860238,0.0,0.0,0.0
70,1.55782340002,1.14310261764,48.280765758,2.1077644792,0.470285465242,27.9065559319,3.62590173021,0.296287810708,0.926272745181,2.95693742551,0.0,0.0,0.0
71,1.57021983662,1.1516016678,48.0190037329,2.11106319224,0.471476562632,28.0522448271,3.63552668616,0.298047900287,0.922679635587,2.95128625184,0.0,0.0,0.0
72,1.58243463446,1.16010078303,47.7596718659,2.11428239815,0.473794918341,28.1950638068,3.64497606223,0.300719713456,0.918900828742,2.94514324362,0.0,0.0,0.0
73,1.59447176838,1.16859870344,47.5027631358,2.11742384913,0.476095772025,28.3350816543,3.65425512372,0.303394798288,0.915077385425,2.93899198846,0.0,0.0,0.0
74,1.60633512298,1.17709422389,47.2482686276,2.12048925514,0.478378637498,28.472365693,3.66336892767,0.306072490496,0.911212153621,2.932833787,0.0,0.0,0.0
75,1.61802849347,1.18558619174,46.9961777011,2.12348028435,0.479456281719,28.6069817735,3.67232233303,0.307773396103,0.907480112504,2.92725016292,0.0,0.0,0.0
76,1.62955558694,1.19407350481,46.7464781417,2.12639856382,0.48169331974,28.7389942686,3.68112001027,0.310439468756,0.903546402895,2.92110219254,0.0,0.0,0.0
77,1.64092002325,1.20255510917,46.4991563103,2.12924568004,0.483911068943,28.8684660703,3.68976645031,0.313106062724,0.899578975507,2.9149510977,0.0,0.0,0.0
78,1.65212533655,1.21102999728,46.2541972738,2.13202317965,0.484896899812,28.9954585953,3.69826597315,0.314750255253,0.895773658053,2.90944019987,0.0,0.0,0.0
79,1.66317497651,1.21949720603,46.0115849317,2.13473257014,0.487066455669,29.1200317923,3.70443505807,0.317400751532,0.892544448012,2.90402575347,0.0,0.0,0.0
80,1.67407230996,1.22795581502,45.7713021299,2.13737532061,0.489215634028,29.2422441553,3.70150255476,0.320049770293,0.892596377361,2.90161553526,0.0,0.0,0.0
81,1.68482062208,1.23640494465,45.5333307732,2.13995286244,0.491344111157,29.3621527351,3.69857453915,0.322696710123,0.892680859964,2.89926093176,0.0,0.0,0.0
82,1.69542311816,1.24484375449,45.2976519224,2.14246659015,0.492205492552,29.4798131593,3.69565008813,0.324258500441,0.892993161435,2.89764761631,0.0,0.0,0.0
83,1.70588292508,1.25327144169,45.0642458893,2.14491786212,0.494283235302,29.5952796502,3.69272834145,0.326883736081,0.893140056897,2.8954143036,0.0,0.0,0.0
84,1.71620309302,1.26168723944,44.8330923196,2.14730800141,0.496339428576,29.7086050484,3.68980849708,0.329504997136,0.893317970056,2.89323864207,0.0,0.0,0.0
85,1.7263865969,1.27009041535,44.6041702786,2.14963829655,0.498373820695,29.8198408329,3.68688980724,0.332121711952,0.893526378392,2.89112126611,0.0,0.0,0.0
86,1.73643633814,1.27848027015,44.3774583211,2.15191000232,0.499106415841,29.9290371478,3.68397157444,0.333588934296,0.893955558425,2.88977758201,0.0,0.0,0.0
87,1.74635514626,1.2868561362,44.1529345614,2.15412434057,0.501088129188,30.0362428265,3.68105314801,0.336178633163,0.894221855279,2.88778567261,0.0,0.0,0.0
88,1.75614578049,1.29521737626,43.9305767373,2.15628250099,0.503047393465,30.1415054185,3.67813392073,0.338761983485,0.894516947456,2.88585353064,0.0,0.0,0.0
89,1.76581093153,1.30356338221,43.710362266,2.15838564193,0.503679148779,30.2448712172,3.67521332585,0.340147151491,0.895026970984,2.88471715133,0.0,0.0,0.0
90,1.77535322297,1.31189357376,43.492268302,2.16043489116,0.505584614614,30.3463852854,3.67229083423,0.342699639508,0.8953763169,2.88291256954,0.0,0.0,0.0
91,1.78477521305,1.32020739733,43.2762717845,2.16243134663,0.507467111796,30.4460914845,3.66936595174,0.345244043986,0.895752679625,2.88116885105,0.0,0.0,0.0
92,1.79407939624,1.32850432497,43.062349484,2.16437607727,0.509326487066,30.5440325022,3.66643821679,0.347779839174,0.896155469018,2.87948633591,0.0,0.0,0.0
93,1.80326820476,1.33678385321,42.8504780446,2.16627012372,0.509824476678,30.6402498802,3.66350719813,0.349050813682,0.896764560844,2.87862629623,0.0,0.0,0.0
94,1.81234401024,1.34504550215,42.6406340214,2.16811449908,0.511628923876,30.7347840435,3.66057249268,0.351550914637,0.897216627628,2.87707307434,0.0,0.0,0.0
95,1.82130912514,1.35328881434,42.4327939188,2.16991018965,0.513409874651,30.8276743264,3.65763372368,0.354040754342,0.897693283163,2.87558168388,0.0,0.0,0.0
96,1.83016580435,1.36151335392,42.2269342215,2.17165815559,0.51516721915,30.9189590017,3.65469053879,0.35651983057,0.898193922567,2.87415231945,0.0,0.0,0.0
97,1.83891624663,1.36971870572,42.0230314246,2.17335933173,0.51552976728,31.0086753079,3.65174260849,0.357666373347,0.898891611128,2.87356884231,0.0,0.0,0.0
98,1.84756259609,1.37790447435,41.8210620616,2.17501462815,0.517231413462,31.0968594761,3.64878962445,0.360105181587,0.899436483383,2.87226930817,0.0,0.0,0.0
99,1.85610694367,1.38607028345,41.6210027274,2.17662493093,0.518909199383,31.1835467576,3.64583129814,0.362531654564,0.900003486733,2.87103201221,0.0,0.0,0.0
100,1.86455132842,1.39421577479,41.4228301043,2.17819110275,0.52056305123,31.2687714492,3.64286735944,0.364945312652,0.900592014853,2.86985702021,0.0,0.0,0.0
101,1.87289773898,1.40234060761,41.2265209805,2.17971398358,0.520789158776,31.3525669202,3.63989755542,0.365957867533,0.901367897978,2.86954803189,0.0,0.0,0.0
102,1.88114811491,1.41044445782,41.0320522696,2.18119439131,0.522386840436,31.4349656374,3.63692164913,0.368326939483,0.901995650317,2.86850235559,0.0,0.0,0.0
103,1.88930434795,1.41852701734,40.8394010275,2.18263312232,0.523960434043,31.5159991904,3.63393941857,0.370681703801,0.902643094628,2.86751883083,0.0,0.0,0.0
104,1.8973682834,1.42658799349,40.6485444672,2.18403095212,0.525509895714,31.5956983163,3.63095065562,0.373021703137,0.903309633468,2.86659741085,0.0,0.0,0.0
105,1.90534172127,1.43462710819,40.4594599742,2.18538863593,0.525599124951,31.6740929233,3.62795516512,0.373891404101,0.904153554969,2.86655884726,0.0,0.0,0.0
106,1.91322641755,1.44264409751,40.2721251182,2.18670690922,0.527092192018,31.7512121143,3.62495276404,0.376182756249,0.904854424756,2.86576531689,0.0,0.0,0.0
107,1.92102408541,1.45063871099,40.0865176637,2.18798648831,0.528561056101,31.8270842101,3.62194328059,0.378457930061,0.905572602654,2.86503342372,0.0,0.0,0.0
108,1.92873639636,1.45861071113,39.9026155812,2.18922807085,0.530005698087,31.9017367714,3.61892655348,0.380716490484,0.90630750785,2.86436302405,0.0,0.0,0.0
109,1.93636498141,1.46655987284,39.7203970542,2.19043233642,0.531426104329,31.9751966216,3.61590243125,0.382958007368,0.907058564222,2.86375395218,0.0,0.0,0.0
110,1.9439114321,1.47448598289,39.5398404891,2.19159994698,0.531346304415,32.0474898665,3.61287077156,0.383641290038,0.907974203558,2.86404440653,0.0,0.0,0.0
111,1.95137730164,1.48238883946,39.3609245212,2.19273154738,0.532710307949,32.1186419163,3.60983144059,0.385829458139,0.908753726582,2.8635604487,0.0,0.0,0.0
112,1.95876410592,1.49026825163,39.1836280203,2.19382776585,0.534050088454,32.1886775055,3.60678431247,0.38799926805,0.909547697484,2.86313702193,0.0,0.0,0.0
113,1.96607332456,1.49812403897,39.0079300961,2.19488921449,0.535365651853,32.2576207124,3.60372926874,0.390150312456,0.910355563494,2.86277388153,0.0,0.0,0.0
114,1.97330640189,1.50595603106,38.8338101032,2.19591648969,0.536657008362,32.3254949779,3.60066619786,0.392282189053,0.911176777894,2.86247076504,0.0,0.0,0.0
115,1.98046474792,1.51376406715,38.6612476432,2.19691017259,0.536408892973,32.3923231252,3.59759499469,0.392767558392,0.912149778452,2.86307895071,0.0,0.0,0.0
116,1.98754973925,1.52154799565,38.4902225701,2.1978708295,0.537644090871,32.4581273767,3.59451556012,0.394841787311,0.912993934421,2.86289719037,0.0,0.0,0.0
117,1.99456271999,1.52930767383,38.3207149909,2.19879901234,0.538855160671,32.5229293718,3.59142780064,0.396895636027,0.913849837581,2.86277439308,0.0,0.0,0.0
118,2.00150500268,1.53704296744,38.1527052685,2.19969525903,0.540042128028,32.5867501844,3.58833162793,0.398928726009,0.914716968601,2.86271023338,0.0,0.0,0.0
119,2.00837786911,1.54475375034,37.9861740228,2.20056009388,0.541205021976,32.6496103391,3.58522695856,0.400940683962,0.915594814993,2.86270437175,0.0,0.0,0.0
120,2.01518257117,1.55243990417,37.821102132,2.20139402797,0.542343874773,32.7115298273,3.58211371359,0.402931141865,0.916482871216,2.86275645531,0.0,0.0,0.0
