,theta i [rad],r orb [AU],v orb [km s-1],ang orb [rad],r L1 [AU],v i [km s-1],ang i [rad],a p [AU],e p,theta p i [rad],flag impact,v imp [km s-1],ang imp [rad]
0,0.0,0.72,65.8647800854,1.57079632679,0.339459462989,10.6575171796,1.57079632679,0.1734991205,0.956548609652,3.14159265359,0.0,0.0,0.0
1,0.0314749859677,0.720133754892,65.8571337212,1.582599142,0.339522524605,10.6736231797,1.64368349631,0.173543727359,0.956645491101,3.14490211727,0.0,0.0,0.0
2,0.0629266069621,0.720534787863,65.834219574,1.59439137019,0.33971160021,10.7217326089,1.7161741166,0.173677508809,0.956935127693,3.14818479093,0.0,0.0,0.0
3,0.0943316160532,0.721202405401,65.7961122333,1.60616247888,0.340026362833,10.8012297169,1.78788688687,0.173900347751,0.957414512495,3.15141417478,0.0,0.0,0.0
4,0.125667001323,0.722135457005,65.7429351961,1.61790204407,0.339743411737,10.9111203698,1.85846953761,0.173833546552,0.95816751462,3.15453560011,0.0,0.0,0.0
5,0.156910100038,0.723332343149,65.6748596535,1.62959980291,0.340306511324,11.0500766043,1.92760993752,0.174232730496,0.959007770332,3.15757475044,0.0,0.0,0.0
6,0.188038707145,0.72479102621,65.5921028299,1.6412457038,0.34099277863,11.2164924599,1.99504375616,0.174719917677,0.960017021318,3.16048591152,0.0,0.0,0.0
7,0.219031179626,0.726509044281,65.4949258994,1.65282995445,0.341801055401,11.4085460048,2.06055844063,0.175294693546,0.961185069979,3.16324645766,0.0,0.0,0.0
8,0.249866532686,0.728483527578,65.3836315269,1.66434306618,0.342729991486,11.624262603,2.12399372792,0.175956575315,0.962500246761,3.16583526687,0.0,0.0,0.0
9,0.280524528553,0.730711217237,65.2585610748,1.67577589477,0.343046611035,11.8615752478,2.18523927299,0.176318536384,0.964025531866,3.16817409108,0.0,0.0,0.0
10,0.310985756371,0.733188486233,65.1200915284,1.68711967715,0.344209613196,12.1183788832,2.24423015466,0.177150586736,0.965591473409,3.17035811353,0.0,0.0,0.0
11,0.341231702646,0.735911362106,64.9686321926,1.6983660637,0.345487920288,12.392576839,2.30094105788,0.178067676128,0.967262264519,3.1723179945,0.0,0.0,0.0
12,0.371244811781,0.738875551209,64.8046212174,1.70950714589,0.346139901414,12.6821185884,2.35537985201,0.178674910983,0.969087144152,3.17396852225,0.0,0.0,0.0
13,0.401008536433,0.742076464141,64.6285220061,1.72053547926,0.347639428192,12.9850289014,2.40758114117,0.179756807673,0.970916021573,3.17543746982,0.0,0.0,0.0
14,0.430507377601,0.745509242068,64.4408195624,1.73144410153,0.34850132092,13.2994290576,2.45760019699,0.180520712435,0.972857992469,3.17657021242,0.0,0.0,0.0
15,0.459726914558,0.749168783614,64.2420168278,1.74222654606,0.350212037538,13.6235511282,2.50550752816,0.181763215604,0.97477860053,3.17751074849,1.0,613.878322579,1.45321542083
16,0.488653824858,0.753049772012,64.0326310591,1.75287685067,0.351272469787,13.9557464772,2.5513842117,0.182678483185,0.976770593501,3.17809821941,1.0,613.898244521,1.27277263393
17,0.51727589485,0.757146702257,63.8131902898,1.76338956208,0.353183550362,14.2944896337,2.59531801495,0.184077110206,0.978716529827,3.17848783864,1.0,613.928303487,1.16530139666
18,0.545582021189,0.761453907973,63.584229915,1.77375973615,0.354430501275,14.6383785903,2.63740027251,0.185138197618,0.980693056681,3.17851694097,1.0,613.950804189,1.07192847905
19,0.573562203887,0.765965587754,63.3462894347,1.78398293424,0.355763800091,14.9861324486,2.67772344419,0.186267854109,0.982636383544,3.17826623829,1.0,613.974476292,0.989358180009
20,0.601207532231,0.770675830866,63.0999093793,1.7940552162,0.357951540636,15.3365871848,2.71637926339,0.187889465998,0.984499847617,3.17781691321,1.0,614.007958242,0.916239406772
21,0.628510162702,0.775578641858,62.8456284516,1.80397312986,0.359452367127,15.68869013,2.75345737742,0.189156120673,0.986337401556,3.17701181145,1.0,614.033710696,0.844488465412
22,0.655463291897,0.780667964281,62.5839808857,1.81373369798,0.361029632717,16.041493673,2.7890443918,0.190486544769,0.988100037259,3.17593559869,1.0,614.060389729,0.776055583333
23,0.682061123574,0.785937703122,62.3154940473,1.8233344027,0.363466689118,16.3941485299,2.8232232335,0.192319527849,0.989754638409,3.17466579154,1.0,614.096540139,0.711939460744
24,0.708298831212,0.791381745934,62.0406862775,1.83277316787,0.36519218065,16.7458968565,2.85607276336,0.193778012635,0.991335298869,3.17306031883,1.0,614.124814559,0.647611110013
25,0.734172517337,0.796993982685,61.7600649765,1.84204833985,0.366984219855,17.0960654037,2.88766757856,0.195295467813,0.992807328657,3.17120112788,1.0,614.153782568,0.584736599587
26,0.759679168909,0.802768323981,61.4741249411,1.85115866671,0.368839503818,17.4440588324,2.91807795504,0.196870236549,0.994161503272,3.16909551848,1.0,614.183371091,0.522973211949
27,0.784816611473,0.808698718037,61.1833469297,1.8601032767,0.371564279465,17.7893533036,2.94736989352,0.198964837255,0.995380208362,3.1668064271,1.0,614.221998847,0.463127868125
28,0.809583461135,0.814779166055,60.8881964618,1.86888165584,0.373542404071,18.1314903802,2.97560523667,0.200655765826,0.996477162261,3.16422600717,1.0,614.252592225,0.402655177919
29,0.833979076106,0.821003736281,60.5891228304,1.87749362536,0.375574285386,18.470071288,3.00284183534,0.202399348567,0.997434138135,3.16142290016,1.0,614.283601397,0.34260570243
30,0.858003506956,0.827366576402,60.2865583295,1.88593931857,0.377656819285,18.8047515313,3.02913374425,0.204193997513,0.998245724523,3.15840565295,1.0,614.314964119,0.282803428697
31,0.88165744778,0.833861924764,59.9809176637,1.89421915821,0.379786966367,19.1352358889,3.05453143577,0.206038147227,0.99890739534,3.15518290506,1.0,614.346621109,0.223086316554
32,0.904942187858,0.840484120249,59.6725975338,1.90233383397,0.381961755989,19.4612737736,3.07908202094,0.207930256323,0.999415469389,3.15176332081,1.0,614.378516096,0.163300062867
33,0.927859563376,0.847227610639,59.3619763936,1.91028428026,0.384178289556,19.7826549311,3.10282946985,0.209868808652,0.999767066205,3.1481555303,1.0,614.410595841,0.103292835955
34,0.950411911243,0.854086960003,59.0494143405,1.9180716548,0.386433743318,20.0992054873,3.1258148283,0.211852314369,0.999960059339,3.1443680784,1.0,614.442810134,0.0429104583275
35,0.972602024307,0.861056854932,58.7352531363,1.92569731798,0.388725370605,20.4107843131,3.14807642623,0.213879310784,0.999993027941,3.14040938133,1.0,614.475111764,-0.018008385066
36,0.994433107457,0.868132109447,58.4198163535,1.9331628127,0.391050503421,20.7172796781,3.16965007522,0.215948362933,0.999865207496,3.13628769041,1.0,614.50745648,-0.0796373186062
37,1.01590873644,0.875307669178,58.1034096088,1.94046984538,0.393406553688,21.0186061963,3.1905692555,0.218058064061,0.999576440387,3.13201106198,1.0,614.539802929,-0.142168291287
38,1.03703281859,0.882578614615,57.7863208831,1.94762026798,0.395791014042,21.3147020338,3.21086529083,0.220207035951,0.999127126895,3.12758733315,1.0,614.572112581,-0.205819024566
39,1.0578095548,0.889940163231,57.4688209269,1.95461606059,0.398201458109,21.6055263477,3.23056751046,0.222393928995,0.998518177115,3.12302410281,1.0,614.604349648,-0.27084273298
40,1.07824340462,0.897387671167,57.1511637113,1.96145931545,0.400635540575,21.8910569646,3.24970340018,0.224617422252,0.997750964208,3.11832871715,1.0,614.636480985,-0.337541413937
41,1.09833905279,0.904916634014,56.8335869378,1.96815222172,0.403090996833,22.1712882598,3.26829874127,0.226876223318,0.99682727929,3.11350825917,1.0,614.668475995,-0.406284800158
42,1.11810137852,0.912522687132,56.5163125797,1.97469705142,0.405565642436,22.4462292347,3.28637773891,0.229169068144,0.995749288219,3.10856954182,1.0,614.700306522,-0.477538576236
43,1.13753542602,0.920201605146,56.1995474655,1.98109614616,0.408057372165,22.7159017626,3.30396313974,0.231494720665,0.994519490477,3.10351910421,1.0,614.731946739,-0.551908390799
44,1.15664637788,0.927949301184,55.8834838732,1.98735190496,0.410564159003,22.9803390072,3.32107634031,0.233851972437,0.993140680238,3.09836321039,1.0,614.763373042,-0.630212350238
45,1.17543953035,0.93576182567,55.56830014,1.99346677311,0.412147354383,23.2395839896,3.33773748664,0.235627126895,0.991632262592,3.0932186775,1.0,614.786622881,-0.71165815951
46,1.19392026998,0.943635364477,55.2541612901,1.99944323168,0.414670599345,23.4936882854,3.35396556503,0.238033864749,0.989968014358,3.0878822729,1.0,614.817589639,-0.801498805818
47,1.21209405275,0.951566237015,54.9412196542,2.00528378804,0.417203218779,23.7427108564,3.36977848576,0.240468537351,0.988164804437,3.08245789197,1.0,614.848283588,-0.90089588706
48,1.22996638499,0.959550894019,54.6296154876,2.01099096736,0.419743487928,23.9867169975,3.38519315998,0.242930042282,0.986226253527,3.07695072198,1.0,614.878688857,-1.0150540288
49,1.24754280535,0.967585914829,54.3194775918,2.01656730455,0.422289752378,24.2257773808,3.40022556955,0.245417301836,0.984156116728,3.07136569669,1.0,614.908791246,-1.15611402081
50,1.26482886904,0.975668004751,54.010923915,2.02201533719,0.423863781617,24.4599672045,3.41489083181,0.247264289987,0.981993133189,3.06588498092,1.0,614.930751906,-1.36459652044
51,1.28183013355,0.983793992234,53.7040621408,2.02733759919,0.42640921163,24.6893654295,3.42920325889,0.249788758633,0.979675897625,3.0601723278,0.0,0.0,0.0
52,1.29855214518,0.991960825641,53.398990272,2.03253661489,0.428956036501,24.9140540881,3.44317641178,0.252335694972,0.977239114614,3.05439548031,0.0,0.0,0.0
53,1.31500042753,1.00016557021,53.0957971858,2.03761489392,0.43150286742,25.1341176735,3.45682315048,0.254904113999,0.974686835526,3.04855843717,0.0,0.0,0.0
54,1.33118047122,1.0084054049,52.7945631714,2.04257492669,0.434048376285,25.3496425959,3.47015568019,0.257493051911,0.972023140029,3.04266498638,0.0,0.0,0.0
55,1.34709772414,1.01667761897,52.495360458,2.04741918022,0.435573598332,25.5607166898,3.48318559331,0.259379477961,0.969311017497,3.03697045379,0.0,0.0,0.0
56,1.3627575835,1.02497960875,52.1982537107,2.05215009457,0.438104401157,25.7674287861,3.49592390873,0.261994540532,0.966442113533,3.03099050364,0.0,0.0,0.0
57,1.37816538843,1.03330887428,51.9033005118,2.05677007976,0.440630214485,25.9698683277,3.50838110777,0.264627159403,0.963474214555,3.02496463392,0.0,0.0,0.0
58,1.39332641381,1.04166301611,51.6105518152,2.06128151305,0.443149935616,26.1681250337,3.52056716758,0.267276448872,0.960411362766,3.01889588175,0.0,0.0,0.0
59,1.40824586445,1.0500397318,51.3200523896,2.06568673653,0.444611421822,26.3622885985,3.53249159169,0.269170671043,0.957338883201,3.01310356683,0.0,0.0,0.0
60,1.42292887054,1.05843681278,51.0318412305,2.0699880552,0.447107446292,26.5524484323,3.5441634386,0.271837887115,0.954104051383,3.00697443067,0.0,0.0,0.0
61,1.43738048371,1.06685214113,50.7459519521,2.07418773531,0.449594349627,26.7386934354,3.55559134829,0.274519032653,0.950786273984,3.00081086319,0.0,0.0,0.0
62,1.45160567332,1.07528368629,50.4624131681,2.0782880029,0.450994863293,26.9211117955,3.56678356642,0.276404252788,0.947489052432,2.99498330585,0.0,0.0,0.0
63,1.46560932382,1.08372950197,50.181248842,2.08229104273,0.453452388091,27.0997908182,3.57774796721,0.279097469173,0.944023163364,2.98877582609,0.0,0.0,0.0
64,1.47939623264,1.09218772319,49.9024786184,2.08619899744,0.455898182642,27.2748167815,3.58849207467,0.281802019898,0.940485766343,2.98254111047,0.0,0.0,0.0
65,1.49297110798,1.10065656312,49.626118146,2.09001396677,0.457229707302,27.4462748048,3.59902308197,0.283668493265,0.936999534242,2.97670338958,0.0,0.0,0.0
66,1.50633856776,1.10913431021,49.3521793697,2.09373800717,0.459641249586,27.6142487457,3.60934786993,0.286379549256,0.933336536206,2.97043893558,0.0,0.0,0.0
67,1.51950313845,1.11761932537,49.0806708131,2.09737313143,0.462038824118,27.7788211085,3.61947302402,0.289099474284,0.929612768139,2.96415339324,0.0,0.0,0.0
68,1.53246925468,1.12611003925,48.8115978376,2.10092130864,0.464421761854,27.9400729726,3.62940485041,0.291827531846,0.92583161685,2.95784851186,0.0,0.0,0.0
69,1.54524125859,1.13460494936,48.5449628957,2.10438446404,0.465653686861,28.0980839284,3.63914939062,0.293659042121,0.922142474725,2.95202443074,0.0,0.0,0.0
70,1.55782340002,1.14310261764,48.280765758,2.1077644792,0.467996971527,28.2529320313,3.64871243558,0.296386686848,0.918263258893,2.9457056124,0.0,0.0,0.0
71,1.57021983662,1.1516016678,48.0190037329,2.11106319224,0.470323808217,28.4046937635,3.65809953858,0.299120148368,0.914336365365,2.93937248312,0.0,0.0,0.0
72,1.58243463446,1.16010078303,47.7596718659,2.11428239815,0.471472394264,28.5534440084,3.66731602759,0.300912012066,0.910531965885,2.93358519335,0.0,0.0,0.0
73,1.59447176838,1.16859870344,47.5027631358,2.11742384913,0.473756235095,28.699256028,3.6763670165,0.303640059943,0.906525772417,2.92724837702,0.0,0.0,0.0
74,1.60633512298,1.17709422389,47.2482686276,2.12048925514,0.476022092519,28.8422014536,3.68525741598,0.306371707954,0.902480798043,2.92090161576,0.0,0.0,0.0
75,1.61802849347,1.18558619174,46.9961777011,2.12348028435,0.477082735803,28.9823502796,3.69399194348,0.308115568531,0.898588421291,2.91516773893,0.0,0.0,0.0
76,1.62955558694,1.19407350481,46.7464781417,2.12639856382,0.479302782206,29.1197708666,3.69181464841,0.310837008585,0.898280411411,2.91232873769,0.0,0.0,0.0
77,1.64092002325,1.20255510917,46.4991563103,2.12924568004,0.481503551221,29.2545299435,3.68907267074,0.313559921026,0.898204407946,2.90972483587,0.0,0.0,0.0
78,1.65212533655,1.21102999728,46.2541972738,2.13202317965,0.482472415347,29.3866926207,3.68633424654,0.31524777876,0.898348929819,2.90782247272,0.0,0.0,0.0
79,1.66317497651,1.21949720603,46.0115849317,2.13473257014,0.484625019834,29.5163224025,3.68359835683,0.317955878466,0.898338861815,2.90533498423,0.0,0.0,0.0
80,1.67407230996,1.22795581502,45.7713021299,2.13737532061,0.486757264041,29.6434812068,3.68086405679,0.320663403341,0.898361551988,2.90290273346,0.0,0.0,0.0
81,1.68482062208,1.23640494465,45.5333307732,2.13995286244,0.487631183415,29.768229382,3.67813047038,0.322287596564,0.898600727244,2.90119917149,0.0,0.0,0.0
82,1.69542311816,1.24484375449,45.2976519224,2.14246659015,0.489713312877,29.8906257321,3.67539678515,0.324975879902,0.898686418335,2.89888789824,0.0,0.0,0.0
83,1.70588292508,1.25327144169,45.0642458893,2.14491786212,0.49177418338,30.0107275399,3.67266224759,0.327661614853,0.898803408919,2.89663412004,0.0,0.0,0.0
84,1.71620309302,1.26168723944,44.8330923196,2.14730800141,0.492550578027,30.1285905952,3.66992615876,0.329214806309,0.89913213573,2.89513442405,0.0,0.0,0.0
85,1.7263865969,1.27009041535,44.6041702786,2.14963829655,0.494559735383,30.2442692198,3.6671878703,0.331877036404,0.899308872809,2.893005251,0.0,0.0,0.0
86,1.73643633814,1.27848027015,44.3774583211,2.15191000232,0.496546895794,30.3578162983,3.6644467807,0.33453481295,0.899515303685,2.89093538914,0.0,0.0,0.0
87,1.74635514626,1.2868561362,44.1529345614,2.15412434057,0.497223696366,30.4692833068,3.66170233191,0.336009980592,0.899928115585,2.88964319615,0.0,0.0,0.0
88,1.75614578049,1.29521737626,43.9305767373,2.15628250099,0.499157851814,30.5787203435,3.65895400615,0.338640146749,0.900190805945,2.88770068735,0.0,0.0,0.0
89,1.76581093153,1.30356338221,43.710362266,2.15838564193,0.501069412291,30.6861761605,3.65620132295,0.341264018536,0.900481478022,2.88581889218,0.0,0.0,0.0
90,1.77535322297,1.31189357376,43.492268302,2.16043489116,0.501644994292,30.7916981927,3.65344383649,0.342654450345,0.900972666968,2.88473651104,0.0,0.0,0.0
91,1.78477521305,1.32020739733,43.2762717845,2.16243134663,0.503502525038,30.8953325909,3.65068113309,0.345246758941,0.901315954965,2.88298399811,0.0,0.0,0.0
92,1.79407939624,1.32850432497,43.062349484,2.16437607727,0.505336984609,30.9971242526,3.64791282884,0.347830993819,0.901685441514,2.88129321668,0.0,0.0,0.0
93,1.80326820476,1.33678385321,42.8504780446,2.16627012372,0.505810110773,31.0971168531,3.64513856749,0.349130286081,0.902249163499,2.88042173197,0.0,0.0,0.0
94,1.81234401024,1.34504550215,42.6406340214,2.16811449908,0.507589748214,31.1953528775,3.64235801843,0.35167915475,0.902667531147,2.87886140672,0.0,0.0,0.0
95,1.82130912514,1.35328881434,42.4327939188,2.16991018965,0.509345944297,31.2918736499,3.63957087486,0.354218230082,0.903110273361,2.87736347643,0.0,0.0,0.0
96,1.83016580435,1.36151335392,42.2269342215,2.17165815559,0.509715714256,31.3867193655,3.63677685207,0.355420288706,0.903740637644,2.87670285395,0.0,0.0,0.0
97,1.83891624663,1.36971870572,42.0230314246,2.17335933173,0.511416497914,31.4799291201,3.63397568588,0.357920343608,0.90422849014,2.87533586288,0.0,0.0,0.0
98,1.84756259609,1.37790447435,41.8210620616,2.17501462815,0.513093562208,31.5715409398,3.63116713111,0.360408944393,0.904738877966,2.87403160623,0.0,0.0,0.0
99,1.85610694367,1.38607028345,41.6210027274,2.17662493093,0.513359368445,31.6615918113,3.62835096026,0.361507988615,0.905430021196,2.87358079806,0.0,0.0,0.0
100,1.86455132842,1.39421577479,41.4228301043,2.17819110275,0.514980605712,31.7501177089,3.62552696221,0.363954064233,0.905981758533,2.87240733674,0.0,0.0,0.0
101,1.87289773898,1.40234060761,41.2265209805,2.17971398358,0.516577925741,31.8371536243,3.62269494109,0.366387083732,0.906554197995,2.87129665545,0.0,0.0,0.0
102,1.88114811491,1.41044445782,41.0320522696,2.18119439131,0.518151271514,31.9227335933,3.61985471513,0.368806558079,0.907146740539,2.87024876832,0.0,0.0,0.0
103,1.88930434795,1.41852701734,40.8394010275,2.18263312232,0.518280646213,32.0068907236,3.61700611571,0.369764792999,0.90791042055,2.87007310849,0.0,0.0,0.0
104,1.8973682834,1.42658799349,40.6485444672,2.18403095212,0.519797831703,32.0896572212,3.61414898633,0.372137335302,0.90853938883,2.86915507545,0.0,0.0,0.0
105,1.90534172127,1.43462710819,40.4594599742,2.18538863593,0.521290935457,32.1710644158,3.61128318183,0.374494806334,0.909186659643,2.86829953626,0.0,0.0,0.0
106,1.91322641755,1.44264409751,40.2721251182,2.18670690922,0.521315839302,32.2511427864,3.6084085675,0.375337757643,0.909997868875,2.86832804893,0.0,0.0,0.0
107,1.92102408541,1.45063871099,40.0865176637,2.18798648831,0.52275269292,32.3299219859,3.60552501838,0.377645141997,0.910677958458,2.86760099675,0.0,0.0,0.0
108,1.92873639636,1.45861071113,39.9026155812,2.18922807085,0.524165414986,32.4074308654,3.60263241851,0.379935989776,0.911374591484,2.86693591077,0.0,0.0,0.0
109,1.93636498141,1.46655987284,39.7203970542,2.19043233642,0.525553992753,32.4836974975,3.59973066029,0.38220985004,0.912087196041,2.86633262877,0.0,0.0,0.0
110,1.9439114321,1.47448598289,39.5398404891,2.19159994698,0.525442456663,32.5587491987,3.59681964391,0.382896721598,0.912953876746,2.86662649321,0.0,0.0,0.0
111,1.95137730164,1.48238883946,39.3609245212,2.19273154738,0.526774817127,32.6326125521,3.59389927672,0.38511654871,0.913694665689,2.86614933597,0.0,0.0,0.0
112,1.95876410592,1.49026825163,39.1836280203,2.19382776585,0.528083048434,32.7053134287,3.59096947277,0.387318003029,0.914449735877,2.8657331925,0.0,0.0,0.0
113,1.96607332456,1.49812403897,39.0079300961,2.19488921449,0.529367157229,32.7768770084,3.58803015224,0.389500655917,0.915218538552,2.86537782016,0.0,0.0,0.0
114,1.97330640189,1.50595603106,38.8338101032,2.19591648969,0.529119690923,32.8473278005,3.58508124107,0.390023727346,0.916131579768,2.86592952563,0.0,0.0,0.0
115,1.98046474792,1.51376406715,38.6612476432,2.19691017259,0.530347775614,32.9166896637,3.58212267048,0.392148672903,0.916924153507,2.86569727549,0.0,0.0,0.0
116,1.98754973925,1.52154799565,38.4902225701,2.1978708295,0.531551806631,32.9849858247,3.57915437658,0.394253515238,0.917728850504,2.86552478611,0.0,0.0,0.0
117,1.99456271999,1.52930767383,38.3207149909,2.19879901234,0.532731806649,33.0522388974,3.57617630003,0.39633784906,0.918545148644,2.8654117476,0.0,0.0,0.0
118,2.00150500268,1.53704296744,38.1527052685,2.19969525903,0.533887801859,33.1184709009,3.57318838567,0.398401274201,0.919372532514,2.86535783503,0.0,0.0,0.0
119,2.00837786911,1.54475375034,37.9861740228,2.20056009388,0.533473521758,33.183703277,3.57019058222,0.398713408038,0.920331871518,2.86621918108,0.0,0.0,0.0
