,theta i [rad],r orb [AU],v orb [km s-1],ang orb [rad],r L1 [AU],v i [km s-1],ang i [rad],a p [AU],e p,theta p i [rad],flag impact,v imp [km s-1],ang imp [rad]
0,0.0,0.72,65.8647800854,1.57079632679,0.339459462989,10.7237129385,1.57079632679,0.173547147038,0.956007164527,3.14159265359,0.0,0.0,0.0
1,0.0314749859677,0.720133754892,65.8571337212,1.582599142,0.339522524605,10.7396442645,1.64323464059,0.173591723598,0.956104633449,3.14492458042,0.0,0.0,0.0
2,0.0629266069621,0.720534787863,65.834219574,1.59439137019,0.33971160021,10.7872343475,1.71528514618,0.173725414046,0.956396030294,3.14822966423,0.0,0.0,0.0
3,0.0943316160532,0.721202405401,65.7961122333,1.60616247888,0.33930443851,10.8658810994,1.78657471826,0.173570255226,0.956969791496,3.15145941436,0.0,0.0,0.0
4,0.125667001323,0.722135457005,65.7429351961,1.61790204407,0.339743411737,10.9746119924,1.8567582069,0.173880879832,0.957636553226,3.15462471426,0.0,0.0,0.0
5,0.156910100038,0.723332343149,65.6748596535,1.62959980291,0.340306511324,11.1121270488,1.92552918788,0.174279789017,0.958482019661,3.15768575941,0.0,0.0,0.0
6,0.188038707145,0.72479102621,65.5921028299,1.6412457038,0.34099277863,11.2768528043,1.99262743299,0.174766638489,0.959497601156,3.16061856906,0.0,0.0,0.0
7,0.219031179626,0.726509044281,65.4949258994,1.65282995445,0.341801055401,11.4670023883,2.05784285899,0.175341012571,0.960673078116,3.16340047749,0.0,0.0,0.0
8,0.249866532686,0.728483527578,65.3836315269,1.66434306618,0.342729991486,11.6806369734,2.12101615121,0.176002427155,0.961996755759,3.16601032721,0.0,0.0,0.0
9,0.280524528553,0.730711217237,65.2585610748,1.67577589477,0.343046611035,11.915724563,2.18203660175,0.176363656088,0.963532626014,3.16836937749,0.0,0.0,0.0
10,0.310985756371,0.733188486233,65.1200915284,1.68711967715,0.344209613196,12.1701931188,2.24083787968,0.177195106112,0.965109102049,3.17057366495,0.0,0.0,0.0
11,0.341231702646,0.735911362106,64.9686321926,1.6983660637,0.345487920288,12.4419761711,2.29739249193,0.178111524978,0.966791406524,3.17255341511,0.0,0.0,0.0
12,0.371244811781,0.738875551209,64.8046212174,1.70950714589,0.346139901414,12.7290500946,2.3517056243,0.178717827479,0.968629703671,3.17422280742,0.0,0.0,0.0
13,0.401008536433,0.742076464141,64.6285220061,1.72053547926,0.347639428192,13.0294630669,2.40380891963,0.179798910228,0.970471916717,3.17571075382,0.0,0.0,0.0
14,0.430507377601,0.745509242068,64.4408195624,1.73144410153,0.34850132092,13.3413563068,2.4537545945,0.180561742277,0.972428989737,3.17686139902,0.0,0.0,0.0
15,0.459726914558,0.749168783614,64.2420168278,1.74222654606,0.350212037538,13.6629785369,2.5016101476,0.181803279937,0.974364601367,3.17782005432,0.0,0.0,0.0
16,0.488653824858,0.753049772012,64.0326310591,1.75287685067,0.351272469787,13.9926947629,2.54745378846,0.182717327072,0.976373217653,3.17842448214,1.0,613.899085578,1.30189926907
17,0.51727589485,0.757146702257,63.8131902898,1.76338956208,0.353183550362,14.3289904731,2.59137062179,0.184114827829,0.978335667908,3.17883136925,1.0,613.929107761,1.18659247583
18,0.545582021189,0.761453907973,63.584229915,1.77375973615,0.354430501275,14.6704722821,2.63344955885,0.185174538833,0.98033017581,3.17887653304,1.0,613.951570234,1.08938728429
19,0.573562203887,0.765965587754,63.3462894347,1.78398293424,0.355763800091,15.0158659127,2.67378088912,0.186302740538,0.982292082608,3.17864145538,1.0,613.975202757,1.00455430386
20,0.601207532231,0.770675830866,63.0999093793,1.7940552162,0.357951540636,15.3640122762,2.71245442732,0.187922968783,0.984174013601,3.17820822458,1.0,614.008643873,0.929995826738
21,0.628510162702,0.775578641858,62.8456284516,1.80397312986,0.359452367127,15.713862236,2.74955814283,0.189187999487,0.986031266917,3.17741797719,1.0,614.034354364,0.857128150691
22,0.655463291897,0.780667964281,62.5839808857,1.81373369798,0.361029632717,16.0644705611,2.78517718678,0.190516714956,0.987814084074,3.17635625683,1.0,614.060990398,0.78785284473
23,0.682061123574,0.785937703122,62.3154940473,1.8233344027,0.363466689118,16.4149894111,2.81939323514,0.192348033155,0.989488767606,3.17510158043,1.0,614.097096868,0.723123901238
24,0.708298831212,0.791381745934,62.0406862775,1.83277316787,0.36519218065,16.764661632,2.85228407975,0.193804625851,0.991090507948,3.17350999012,1.0,614.125326521,0.658270054147
25,0.734172517337,0.796993982685,61.7600649765,1.84204833985,0.366984219855,17.1128140662,2.88392340959,0.195320097663,0.992583993206,3.17166440589,1.0,614.154249025,0.594974167653
26,0.759679168909,0.802768323981,61.4741249411,1.85115866671,0.368839503818,17.458850995,2.91438073307,0.196892789681,0.993959965713,3.16957215739,1.0,614.183791397,0.532871059536
27,0.784816611473,0.808698718037,61.1833469297,1.8601032767,0.371564279465,17.8022478345,2.94372140545,0.198985313679,0.995200414735,3.16729729505,1.0,614.222372439,0.472778366163
28,0.809583461135,0.814779166055,60.8881964618,1.86888165584,0.373542404071,18.1425451238,2.97200672917,0.200673962453,0.996319803256,3.16472986092,1.0,614.252918638,0.41208538301
29,0.833979076106,0.821003736281,60.5891228304,1.87749362536,0.375574285386,18.4793428557,2.99929410504,0.202415165292,0.99729946493,3.16193958219,1.0,614.283880242,0.351863435479
30,0.858003506956,0.827366576402,60.2865583295,1.88593931857,0.377656819285,18.8122951495,3.02563721476,0.204207332186,0.998133960265,3.15893503421,1.0,614.315195083,0.29193078879
31,0.88165744778,0.833861924764,59.9809176637,1.89421915821,0.379786966367,19.1411052921,3.05108622316,0.206048895681,0.998818736377,3.15572488419,1.0,614.346803953,0.23212136737
32,0.904942187858,0.840484120249,59.6725975338,1.90233383397,0.381961755989,19.4655211339,3.07568798926,0.2079383124,0.999350086459,3.15231782326,1.0,614.378650651,0.172278158131
33,0.927859563376,0.847227610639,59.3619763936,1.91028428026,0.384178289556,19.7853308164,3.09948627804,0.209874064245,0.999725105585,3.14872250739,1.0,614.410682005,0.112247724588
34,0.950411911243,0.854086960003,59.0494143405,1.9180716548,0.386433743318,20.1003588422,3.12252196971,0.211854659457,0.999941643946,3.14494750632,1.0,614.442847862,0.0518752712611
35,0.972602024307,0.861056854932,58.7352531363,1.92569731798,0.388725370605,20.4104624576,3.14483326191,0.213878633475,0.999998258395,3.14100126011,1.0,614.475101073,-0.0090001835196
36,0.994433107457,0.868132109447,58.4198163535,1.9331628127,0.391050503421,20.7155283196,3.16645586183,0.215944549508,0.999894163131,3.13689204284,1.0,614.507397438,-0.0705509368694
37,1.01590873644,0.875307669178,58.1034096088,1.94046984538,0.393406553688,21.015469453,3.18742316867,0.218050999025,0.999629180224,3.13262793258,1.0,614.539695653,-0.132966488122
38,1.03703281859,0.882578614615,57.7863208831,1.94762026798,0.395791014042,21.3102224649,3.20776644465,0.220196602084,0.999203690564,3.12821678709,1.0,614.571957237,-0.196460748838
39,1.0578095548,0.889940163231,57.4688209269,1.95461606059,0.398201458109,21.5997449904,3.22751497378,0.222380007403,0.998618585744,3.1236662249,1.0,614.60414644,-0.261281370384
40,1.07824340462,0.897387671167,57.1511637113,1.96145931545,0.400635540575,21.8840133749,3.24669621006,0.224599892428,0.997875221261,3.11898361076,1.0,614.636230159,-0.327722401718
41,1.09833905279,0.904916634014,56.8335869378,1.96815222172,0.403090996833,22.1630205559,3.26533591417,0.226854963193,0.996975371378,3.11417604532,1.0,614.668177832,-0.396142217323
42,1.11810137852,0.912522687132,56.5163125797,1.97469705142,0.405565642436,22.4367741429,3.28345827994,0.229143954153,0.995921185864,3.10925035816,1.0,614.699961335,-0.466990025292
43,1.13753542602,0.920201605146,56.1995474655,1.98109614616,0.408057372165,22.705294664,3.30108605018,0.231465627802,0.994715148844,3.10421310412,1.0,614.731554872,-0.54084690317
44,1.15664637788,0.927949301184,55.8834838732,1.98735190496,0.410564159003,22.9686139844,3.31824062382,0.233818774324,0.993360039838,3.0990705621,1.0,614.762934863,-0.618492791135
45,1.17543953035,0.93576182567,55.56830014,1.99346677311,0.412147354383,23.226773874,3.33494215428,0.235589889671,0.991874777407,3.09393788997,1.0,614.786138779,-0.699121640859
46,1.19392026998,0.943635364477,55.2541612901,1.99944323168,0.414670599345,23.4798247033,3.35120963925,0.237992289601,0.990234025899,3.08861517121,1.0,614.817060034,-0.787791269024
47,1.21209405275,0.951566237015,54.9412196542,2.00528378804,0.417203218779,23.7278242753,3.36706100369,0.240422495145,0.988454213661,3.0832046823,1.0,614.847708914,-0.885486284052
48,1.22996638499,0.959550894019,54.6296154876,2.01099096736,0.419743487928,23.9708367703,3.38251317589,0.242879402792,0.986538949266,3.07771162215,1.0,614.878069566,-0.996896672577
49,1.24754280535,0.967585914829,54.3194775918,2.01656730455,0.422289752378,24.2089317895,3.39758215687,0.245361933816,0.98449197625,3.07214093545,1.0,614.908127804,-1.13247913561
50,1.26482886904,0.975668004751,54.010923915,2.02201533719,0.42484042626,24.4421835029,3.41228308455,0.247869033623,0.982317147848,3.06649732024,1.0,614.937871009,-1.33031410081
51,1.28183013355,0.983793992234,53.7040621408,2.02733759919,0.42640921163,24.670669884,3.42663029277,0.249723887683,0.980056943259,3.06097501042,0.0,0.0,0.0
52,1.29855214518,0.991960825641,53.398990272,2.03253661489,0.428956036501,24.894472017,3.44063736493,0.252265726413,0.97764285116,3.05521319278,0.0,0.0,0.0
53,1.31500042753,1.00016557021,53.0957971858,2.03761489392,0.43150286742,25.1136734857,3.45431718396,0.254828914307,0.975113099847,3.04939144381,0.0,0.0,0.0
54,1.33118047122,1.0084054049,52.7945631714,2.04257492669,0.434048376285,25.3283598275,3.46768197822,0.257412486912,0.972471759904,3.04351355947,0.0,0.0,0.0
55,1.34709772414,1.01667761897,52.495360458,2.04741918022,0.435573598332,25.5386180395,3.48074336333,0.259293890023,0.969780924177,3.03783268466,0.0,0.0,0.0
56,1.3627575835,1.02497960875,52.1982537107,2.05215009457,0.438104401157,25.7445361493,3.49351238133,0.261903351856,0.966933968474,3.03186880503,0.0,0.0,0.0
57,1.37816538843,1.03330887428,51.9033005118,2.05677007976,0.440630214485,25.9462028288,3.50599953646,0.264530235501,0.963987821704,3.02585929695,0.0,0.0,0.0
58,1.39332641381,1.04166301611,51.6105518152,2.06128151305,0.443149935616,26.1437070581,3.5182148285,0.267173654915,0.960946518648,3.01980720362,0.0,0.0,0.0
59,1.40824586445,1.0500397318,51.3200523896,2.06568673653,0.444611421822,26.3371378219,3.53016778322,0.269062492317,0.9578943443,3.01402940017,0.0,0.0,0.0
60,1.42292887054,1.05843681278,51.0318412305,2.0699880552,0.447107446292,26.5265838497,3.5418674809,0.271723607306,0.954680599845,3.00791746266,0.0,0.0,0.0
61,1.43738048371,1.06685214113,50.7459519521,2.07418773531,0.449594349627,26.7121333889,3.55332258284,0.274398517639,0.951383687249,3.00177140469,0.0,0.0,0.0
62,1.45160567332,1.07528368629,50.4624131681,2.0782880029,0.452071223333,26.8938740002,3.56454135546,0.277086404462,0.948007445247,2.99559366012,0.0,0.0,0.0
63,1.46560932382,1.08372950197,50.181248842,2.08229104273,0.453452388091,27.0718923878,3.5755316932,0.278964863782,0.944660451926,2.98976958864,0.0,0.0,0.0
64,1.47939623264,1.09218772319,49.9024786184,2.08619899744,0.455898182642,27.2462742521,3.58630113971,0.281662821481,0.94114318788,2.98355326041,0.0,0.0,0.0
65,1.49297110798,1.10065656312,49.626118146,2.09001396677,0.458331465617,27.4171041584,3.59685690721,0.284371205966,0.937557803387,2.97731207887,0.0,0.0,0.0
66,1.50633856776,1.10913431021,49.3521793697,2.09373800717,0.459641249586,27.584465432,3.60720589503,0.286227683699,0.934032238387,2.97148584085,0.0,0.0,0.0
67,1.51950313845,1.11761932537,49.0806708131,2.09737313143,0.462038824118,27.7484400661,3.61735470651,0.288940667675,0.930327832659,2.96521958164,0.0,0.0,0.0
68,1.53246925468,1.12611003925,48.8115978376,2.10092130864,0.464421761854,27.9091086493,3.62730966513,0.29166165427,0.926565787916,2.95893431489,0.0,0.0,0.0
69,1.54524125859,1.13460494936,48.5449628957,2.10438446404,0.465653686861,28.0665503003,3.63707682914,0.293487024541,0.922894165852,2.95312691351,0.0,0.0,0.0
70,1.55782340002,1.14310261764,48.280765758,2.1077644792,0.467996971527,28.2208426215,3.64666200563,0.296207392416,0.919033511124,2.94682828362,0.0,0.0,0.0
71,1.57021983662,1.1516016678,48.0190037329,2.11106319224,0.470323808217,28.3720616599,3.65607076351,0.29893345044,0.915124913148,2.94051567852,0.0,0.0,0.0
72,1.58243463446,1.16010078303,47.7596718659,2.11428239815,0.471472394264,28.5202818803,3.66530844581,0.300719000788,0.911337147608,2.93474568616,0.0,0.0,0.0
73,1.59447176838,1.16859870344,47.5027631358,2.11742384913,0.473756235095,28.6655761424,3.67438018095,0.303439450615,0.907348690865,2.92842996579,0.0,0.0,0.0
74,1.60633512298,1.17709422389,47.2482686276,2.12048925514,0.476022092519,28.8080156907,3.68329089361,0.306163377962,0.903321180167,2.92210463825,0.0,0.0,0.0
75,1.61802849347,1.18558619174,46.9961777011,2.12348028435,0.477082735803,28.9476701478,3.69204531475,0.307900779289,0.899444543873,2.9163886497,0.0,0.0,0.0
76,1.62955558694,1.19407350481,46.7464781417,2.12639856382,0.479302782206,29.0846075163,3.69374178999,0.31061431702,0.897787979649,2.91230959653,0.0,0.0,0.0
77,1.64092002325,1.20255510917,46.4991563103,2.12924568004,0.481503551221,29.218894181,3.69098071911,0.313329209291,0.897714341759,2.90970940273,0.0,0.0,0.0
78,1.65212533655,1.21102999728,46.2541972738,2.13202317965,0.482472415347,29.3505949209,3.68822358356,0.315010491651,0.897862457052,2.90781107284,0.0,0.0,0.0
79,1.66317497651,1.21949720603,46.0115849317,2.13473257014,0.484625019834,29.4797729217,3.68546935265,0.317710403928,0.897854777788,2.90532716637,0.0,0.0,0.0
80,1.67407230996,1.22795581502,45.7713021299,2.13737532061,0.486757264041,29.606489794,3.68271707036,0.32040962901,0.897879867979,2.90289843305,0.0,0.0,0.0
81,1.68482062208,1.23640494465,45.5333307732,2.13995286244,0.487631183415,29.7308055911,3.67996584978,0.322027162689,0.898122667078,2.90119868119,0.0,0.0,0.0
82,1.69542311816,1.24484375449,45.2976519224,2.14246659015,0.489713312877,29.8527788319,3.67721486806,0.324706994806,0.898210778612,2.89889078018,0.0,0.0,0.0
83,1.70588292508,1.25327144169,45.0642458893,2.14491786212,0.49177418338,29.9724665253,3.67446336162,0.327384172351,0.898330199894,2.89664030071,0.0,0.0,0.0
84,1.71620309302,1.26168723944,44.8330923196,2.14730800141,0.492550578027,30.0899241967,3.6717106218,0.328930654029,0.898662577444,2.89514416493,0.0,0.0,0.0
85,1.7263865969,1.27009041535,44.6041702786,2.14963829655,0.494559735383,30.2052059136,3.66895599092,0.331584192472,0.89884176402,2.89301812888,0.0,0.0,0.0
86,1.73643633814,1.27848027015,44.3774583211,2.15191000232,0.496546895794,30.3183643148,3.66619885846,0.334233178022,0.89905065414,2.89095132287,0.0,0.0,0.0
87,1.74635514626,1.2868561362,44.1529345614,2.15412434057,0.497223696366,30.42945064,3.66343865768,0.335701621372,0.89946714154,2.88966241754,0.0,0.0,0.0
88,1.75614578049,1.29521737626,43.9305767373,2.15628250099,0.499157851814,30.5385147593,3.66067486242,0.338322880726,0.899732309196,2.88772278887,0.0,0.0,0.0
89,1.76581093153,1.30356338221,43.710362266,2.15838564193,0.501069412291,30.6456052045,3.65790698415,0.340937753833,0.900025468214,2.88584378617,0.0,0.0,0.0
90,1.77535322297,1.31189357376,43.492268302,2.16043489116,0.502958201066,30.7507691983,3.65513456927,0.343545686977,0.900346046525,2.88402584257,0.0,0.0,0.0
91,1.78477521305,1.32020739733,43.2762717845,2.16243134663,0.503502525038,30.8540526866,3.65235719658,0.34490469782,0.900866149251,2.8830144935,0.0,0.0,0.0
92,1.79407939624,1.32850432497,43.062349484,2.16437607727,0.505336984609,30.9555003692,3.64957447493,0.347479753985,0.901238150558,2.88132622409,0.0,0.0,0.0
93,1.80326820476,1.33678385321,42.8504780446,2.16627012372,0.507148232741,31.0551557304,3.64678604108,0.350046116363,0.901635769345,2.87969990677,0.0,0.0,0.0
94,1.81234401024,1.34504550215,42.6406340214,2.16811449908,0.507589748214,31.1530610711,3.64399155767,0.351312020453,0.902226495841,2.8788994189,0.0,0.0,0.0
95,1.82130912514,1.35328881434,42.4327939188,2.16991018965,0.509345944297,31.2492575373,3.64119071141,0.353841766265,0.90267178143,2.87740370619,0.0,0.0,0.0
96,1.83016580435,1.36151335392,42.2269342215,2.17165815559,0.51107859048,31.3437851523,3.63838321129,0.356361124164,0.903140851132,2.87597049483,0.0,0.0,0.0
97,1.83891624663,1.36971870572,42.0230314246,2.17335933173,0.511416497914,31.4366828457,3.63556878706,0.357527957076,0.903796306663,2.87538047666,0.0,0.0,0.0
98,1.84756259609,1.37790447435,41.8210620616,2.17501462815,0.513093562208,31.5279884832,3.6327471877,0.360007108166,0.904309267716,2.87407813202,0.0,0.0,0.0
99,1.85610694367,1.38607028345,41.6210027274,2.17662493093,0.51474682618,31.6177388962,3.62991818002,0.362474236256,0.904844172004,2.87283852459,0.0,0.0,0.0
100,1.86455132842,1.39421577479,41.4228301043,2.17819110275,0.514980605712,31.7059699091,3.62708154746,0.363536348871,0.905558511312,2.87245760729,0.0,0.0,0.0
101,1.87289773898,1.40234060761,41.2265209805,2.17971398358,0.516577925741,31.7927163683,3.62423708885,0.365959830342,0.906133555304,2.87134852384,0.0,0.0,0.0
102,1.88114811491,1.41044445782,41.0320522696,2.18119439131,0.518151271514,31.8780121695,3.62138461733,0.368369712844,0.906728714039,2.87030213001,0.0,0.0,0.0
103,1.88930434795,1.41852701734,40.8394010275,2.18263312232,0.51970059317,31.9618902847,3.61852395932,0.3707655147,0.907343390625,2.86931841123,0.0,0.0,0.0
104,1.8973682834,1.42658799349,40.6485444672,2.18403095212,0.519797831703,32.0443827885,3.61565495358,0.371684726235,0.908127802972,2.8692113133,0.0,0.0,0.0
105,1.90534172127,1.43462710819,40.4594599742,2.18538863593,0.521290935457,32.1255208834,3.6127774503,0.37403255997,0.908777723374,2.86835694521,0.0,0.0,0.0
106,1.91322641755,1.44264409751,40.2721251182,2.18670690922,0.522759927481,32.2053349256,3.60989131033,0.376364813687,0.909445372411,2.86756487174,0.0,0.0,0.0
107,1.92102408541,1.45063871099,40.0865176637,2.18798648831,0.524204783715,32.2838544489,3.60699640438,0.37868102704,0.910130167769,2.8668349759,0.0,0.0,0.0
108,1.92873639636,1.45861071113,39.9026155812,2.18922807085,0.524165414986,32.3611081889,3.60409261232,0.379448545755,0.91097483914,2.86699637716,0.0,0.0,0.0
109,1.93636498141,1.46655987284,39.7203970542,2.19043233642,0.525553992753,32.4371241067,3.6011798225,0.381712726812,0.911690141045,2.86639383272,0.0,0.0,0.0
110,1.9439114321,1.47448598289,39.5398404891,2.19159994698,0.526918418601,32.5119294106,3.59825793119,0.383959446792,0.912420860766,2.86585280058,0.0,0.0,0.0
111,1.95137730164,1.48238883946,39.3609245212,2.19273154738,0.528258689833,32.5855505787,3.59532684196,0.386188267275,0.913166436818,2.86537307634,0.0,0.0,0.0
112,1.95876410592,1.49026825163,39.1836280203,2.19382776585,0.528083048434,32.6580133805,3.59238646517,0.386796028758,0.91406199688,2.86579613078,0.0,0.0,0.0
113,1.96607332456,1.49812403897,39.0079300961,2.19488921449,0.529367157229,32.7293428976,3.58943671746,0.388969019413,0.91483354675,2.86544105974,0.0,0.0,0.0
114,1.97330640189,1.50595603106,38.8338101032,2.19591648969,0.530627154411,32.7995635437,3.58647752133,0.391122771527,0.915618300168,2.86514639074,0.0,0.0,0.0
115,1.98046474792,1.51376406715,38.6612476432,2.19691017259,0.531863054954,32.8686990851,3.58350880463,0.393256869517,0.916415720788,2.86491184578,0.0,0.0,0.0
116,1.98754973925,1.52154799565,38.4902225701,2.1978708295,0.531551806631,32.9367726585,3.58053050026,0.393697564368,0.917353309375,2.86558843751,0.0,0.0,0.0
117,1.99456271999,1.52930767383,38.3207149909,2.19879901234,0.532731806649,33.0038067909,3.57754254573,0.395772312661,0.918172405795,2.86547526483,0.0,0.0,0.0
118,2.00150500268,1.53704296744,38.1527052685,2.19969525903,0.533887801859,33.0698234169,3.57454488285,0.397826153106,0.91900260206,2.86542111018,0.0,0.0,0.0
119,2.00837786911,1.54475375034,37.9861740228,2.20056009388,0.535019821801,33.1348438964,3.57153745737,0.399858694028,0.919843389674,2.86542563445,0.0,0.0,0.0
120,2.01518257117,1.55243990417,37.821102132,2.20139402797,0.536127899207,33.1988890313,3.56852021872,0.401869549004,0.920694267072,2.86548848495,0.0,0.0,0.0
