,theta i [rad],r orb [AU],v orb [km s-1],ang orb [rad],r L1 [AU],v i [km s-1],ang i [rad],a p [AU],e p,theta p i [rad],flag impact,v imp [km s-1],ang imp [rad]
0,0.0,0.72,65.8647800854,1.57079632679,0.338738742275,11.6504535628,1.57079632679,0.173873998363,0.948185153983,3.14159265359,0.0,0.0,0.0
1,0.0314749859677,0.720133754892,65.8571337212,1.582599142,0.338801670002,11.664147352,1.63748426714,0.17391804052,0.94829059708,3.14523493627,0.0,0.0,0.0
2,0.0629266069621,0.720534787863,65.834219574,1.59439137019,0.338990344173,11.7050786238,1.70388487102,0.174050126348,0.94860588836,3.148849666,0.0,0.0,0.0
3,0.0943316160532,0.721202405401,65.7961122333,1.60616247888,0.338582514187,11.7728028918,1.76971961377,0.173889275967,0.949236044851,3.15238534838,0.0,0.0,0.0
4,0.125667001323,0.722135457005,65.7429351961,1.61790204407,0.339020553428,11.8665981685,1.83472691272,0.174196152132,0.949958099071,3.15585605215,0.0,0.0,0.0
5,0.156910100038,0.723332343149,65.6748596535,1.62959980291,0.339582454932,11.9854914905,1.89866898957,0.174590225187,0.950874327829,3.15921979566,0.0,0.0,0.0
6,0.188038707145,0.72479102621,65.5921028299,1.6412457038,0.340267262094,12.1282928967,1.96133704896,0.175071138392,0.951975902281,3.16245200966,0.0,0.0,0.0
7,0.219031179626,0.726509044281,65.4949258994,1.65282995445,0.341073819127,12.2936342824,2.02255457727,0.175638460943,0.953252317757,3.16552949448,0.0,0.0,0.0
8,0.249866532686,0.728483527578,65.3836315269,1.66434306618,0.342000778752,12.4800104629,2.08217876461,0.176291690975,0.954691552496,3.16843062061,0.0,0.0,0.0
9,0.280524528553,0.730711217237,65.2585610748,1.67577589477,0.342315168382,12.6858200123,2.14010023716,0.176640703541,0.956372535111,3.1710696394,0.0,0.0,0.0
10,0.310985756371,0.733188486233,65.1200915284,1.68711967715,0.343475690794,12.9094038642,2.19624140209,0.177461674185,0.958092333357,3.17355481038,0.0,0.0,0.0
11,0.341231702646,0.735911362106,64.9686321926,1.6983660637,0.344751272284,13.1490802029,2.25055376744,0.178366416435,0.959931361154,3.17581016867,0.0,0.0,0.0
12,0.371244811781,0.738875551209,64.8046212174,1.70950714589,0.345400286254,13.4031747251,2.3030146039,0.178957062714,0.961953512821,3.17774122437,0.0,0.0,0.0
13,0.401008536433,0.742076464141,64.6285220061,1.72053547926,0.346896608916,13.6700458555,2.35362328007,0.180024037506,0.963977460519,3.17949316177,0.0,0.0,0.0
14,0.430507377601,0.745509242068,64.4408195624,1.73144410153,0.347755065429,13.9481049048,2.40239754357,0.180768831908,0.966141544074,3.18089258163,0.0,0.0,0.0
15,0.459726914558,0.749168783614,64.2420168278,1.74222654606,0.349462118843,14.2358314544,2.44936995229,0.181993721991,0.968281889212,3.1821035258,0.0,0.0,0.0
16,0.488653824858,0.753049772012,64.0326310591,1.75287685067,0.350518666218,14.5317844421,2.49458459334,0.182887253683,0.970518533464,3.18294410622,0.0,0.0,0.0
17,0.51727589485,0.757146702257,63.8131902898,1.76338956208,0.352425645762,14.8346095233,2.53809416975,0.18426544505,0.97270665893,3.18359199984,0.0,0.0,0.0
18,0.545582021189,0.761453907973,63.584229915,1.77375973615,0.353668285158,15.1430433084,2.57995748877,0.185302055053,0.974948071273,3.18386141804,1.0,613.954255796,1.53235101749
19,0.573562203887,0.765965587754,63.3462894347,1.78398293424,0.355763800091,15.455915062,2.62023735198,0.186828716106,0.977117866751,3.18393817256,1.0,613.986122549,1.28490258623
20,0.601207532231,0.770675830866,63.0999093793,1.7940552162,0.357180093364,15.7721464029,2.65899882555,0.188002575614,0.979300164698,3.18363711175,1.0,614.010272037,1.15760733458
21,0.628510162702,0.775578641858,62.8456284516,1.80397312986,0.358676012137,16.0907494585,2.69630785268,0.189240453298,0.981428441119,3.18305517718,1.0,614.035412991,1.05676589253
22,0.655463291897,0.780667964281,62.5839808857,1.81373369798,0.361029632717,16.4108238965,2.73223016895,0.190977918234,0.983455091197,3.18228655217,1.0,614.07014897,0.972019066378
23,0.682061123574,0.785937703122,62.3154940473,1.8233344027,0.362679964697,16.7315531459,2.76683047411,0.192343922694,0.985439647511,3.18115531164,1.0,614.097016598,0.891514290595
24,0.708298831212,0.791381745934,62.0406862775,1.83277316787,0.364400006736,17.0522000815,2.80017181898,0.19376904245,0.987332076311,3.17975934485,1.0,614.124641966,0.816424900937
25,0.734172517337,0.796993982685,61.7600649765,1.84204833985,0.366984219855,17.3721023893,2.83231516907,0.195705279043,0.989099429095,3.1781862268,1.0,614.161528534,0.747205709886
26,0.759679168909,0.802768323981,61.4741249411,1.85115866671,0.368839503818,17.6906677601,2.86331910872,0.197249416038,0.990779961637,3.17627872713,1.0,614.190424756,0.678608344086
27,0.784816611473,0.808698718037,61.1833469297,1.8601032767,0.370754771245,18.0073690603,2.89323965885,0.198847826403,0.99233900799,3.17412907273,1.0,614.219862505,0.612230941959
28,0.809583461135,0.814779166055,60.8881964618,1.86888165584,0.372726809316,18.3217395545,2.92213018121,0.200498853913,0.993768845285,3.17174581937,1.0,614.249775057,0.547560402606
29,0.833979076106,0.821003736281,60.5891228304,1.87749362536,0.374752459831,18.6333682618,2.95004135002,0.202200861434,0.995062718899,3.16913777068,1.0,614.280098407,0.48420433003
30,0.858003506956,0.827366576402,60.2865583295,1.88593931857,0.377656819285,18.9418954756,2.97702117251,0.204437533022,0.996207166323,3.16636842337,1.0,614.319177517,0.422830526292
31,0.88165744778,0.833861924764,59.9809176637,1.89421915821,0.379786966367,19.2470085006,3.00311504687,0.206243593158,0.997214607716,3.16333112644,1.0,614.350112681,0.361063769948
32,0.904942187858,0.840484120249,59.6725975338,1.90233383397,0.381961755989,19.5484376168,3.02836584597,0.208096060065,0.998070989584,3.16009564927,1.0,614.381283306,0.2998262261
33,0.927859563376,0.847227610639,59.3619763936,1.91028428026,0.384178289556,19.8459522702,3.0528140175,0.20999338955,0.998773070139,3.15667101355,1.0,614.412637132,0.238918821186
34,0.950411911243,0.854086960003,59.0494143405,1.9180716548,0.386433743318,20.1393575171,3.076497696,0.211934064343,0.999318378239,3.15306614009,1.0,614.444124868,0.178158694464
35,0.972602024307,0.861056854932,58.7352531363,1.92569731798,0.388725370605,20.4284907076,3.09945282083,0.213916595006,0.999705164281,3.14928980493,1.0,614.475700165,0.117372028531
36,0.994433107457,0.868132109447,58.4198163535,1.9331628127,0.391050503421,20.7132183944,3.12171325547,0.215939520552,0.999932350225,3.14535060276,1.0,614.507319573,0.0563879685385
37,1.01590873644,0.875307669178,58.1034096088,1.94046984538,0.393406553688,20.9934334809,3.14331090735,0.218001408968,0.999999479478,3.14125691683,1.0,614.538942482,-0.00496698454445
38,1.03703281859,0.882578614615,57.7863208831,1.94762026798,0.395791014042,21.2690525878,3.16427584509,0.220100857579,0.999906667222,3.13701689478,1.0,614.570531052,-0.0668746149892
39,1.0578095548,0.889940163231,57.4688209269,1.95461606059,0.398201458109,21.5400136167,3.18463641116,0.22223649316,0.999654551681,3.13263842995,1.0,614.60205013,-0.129531170165
40,1.07824340462,0.897387671167,57.1511637113,1.96145931545,0.400635540575,21.8062735233,3.2044193307,0.224406972021,0.999244246752,3.12812914716,1.0,614.633467155,-0.193154668647
41,1.09833905279,0.904916634014,56.8335869378,1.96815222172,0.403090996833,22.0678062689,3.22364981455,0.226610979902,0.998677296303,3.1234963928,1.0,614.664752066,-0.257994119344
42,1.11810137852,0.912522687132,56.5163125797,1.97469705142,0.405565642436,22.3246009512,3.24235165701,0.228847231817,0.99795563039,3.11874722837,1.0,614.695877194,-0.324341810835
43,1.13753542602,0.920201605146,56.1995474655,1.98109614616,0.408057372165,22.5766600884,3.26054732723,0.23111447171,0.997081523603,3.11388842732,1.0,614.726817155,-0.392550497802
44,1.15664637788,0.927949301184,55.8834838732,1.98735190496,0.410564159003,22.8239980627,3.27825805551,0.233411472102,0.996057555626,3.10892647439,1.0,614.757548746,-0.463058567607
45,1.17543953035,0.93576182567,55.56830014,1.99346677311,0.4130840529,23.0666397039,3.29550391405,0.235737033681,0.994886574104,3.10386756719,1.0,614.788050831,-0.536428674384
46,1.19392026998,0.943635364477,55.2541612901,1.99944323168,0.415615179283,23.3046189942,3.31230389162,0.238089984717,0.993571659892,3.09871761987,1.0,614.81830423,-0.613410278037
47,1.21209405275,0.951566237015,54.9412196542,2.00528378804,0.418155737528,23.537977902,3.32867596384,0.240469180538,0.992116094624,3.09348226814,1.0,614.848291614,-0.695047530324
48,1.22996638499,0.959550894019,54.6296154876,2.01099096736,0.420703999327,23.7667653251,3.34463715844,0.242873502941,0.990523330594,3.08816687563,1.0,614.877997397,-0.782881003872
49,1.24754280535,0.967585914829,54.3194775918,2.01656730455,0.422289752378,23.9910361281,3.36020361546,0.24465145033,0.988818651441,3.08291257544,1.0,614.899587799,-0.876623396491
50,1.26482886904,0.975668004751,54.010923915,2.02201533719,0.42484042626,24.2108502813,3.3753906437,0.247092191259,0.98696593132,3.07746537514,1.0,614.928719558,-0.985449818864
51,1.28183013355,0.983793992234,53.7040621408,2.02733759919,0.427393990394,24.4262720849,3.39021277317,0.249554674663,0.984987353494,3.07195294876,1.0,614.957531993,-1.11635733098
52,1.29855214518,0.991960825641,53.398990272,2.03253661489,0.429948990273,24.6373694634,3.40468380323,0.252037882367,0.982886787257,3.06637964956,1.0,614.986015448,-1.29984163129
53,1.31500042753,1.00016557021,53.0957971858,2.03761489392,0.43250403415,24.8442133406,3.41881684786,0.254540819164,0.980668154565,3.06074960223,0.0,0.0,0.0
54,1.33118047122,1.0084054049,52.7945631714,2.04257492669,0.435057791098,25.0468770784,3.43262437771,0.25706251212,0.978335412326,3.05506671249,0.0,0.0,0.0
55,1.34709772414,1.01667761897,52.495360458,2.04741918022,0.437608988948,25.2454359684,3.44611825859,0.259602009758,0.97589253648,3.04933467693,0.0,0.0,0.0
56,1.3627575835,1.02497960875,52.1982537107,2.05215009457,0.439130406765,25.4399667867,3.45930978793,0.26143076975,0.973394478028,3.0437913842,0.0,0.0,0.0
57,1.37816538843,1.03330887428,51.9033005118,2.05677007976,0.441664557695,25.6305473921,3.47220972823,0.263991302415,0.970748215028,3.03798648302,0.0,0.0,0.0
58,1.39332641381,1.04166301611,51.6105518152,2.06128151305,0.444192641331,25.8172563735,3.48482833856,0.266566733829,0.968003888461,3.03214263028,0.0,0.0,0.0
59,1.40824586445,1.0500397318,51.3200523896,2.06568673653,0.446713603454,26.0001727318,3.4971754034,0.269156192325,0.965165412287,3.02626278059,0.0,0.0,0.0
60,1.42292887054,1.05843681278,51.0318412305,2.0699880552,0.449226438897,26.1793756043,3.50926025987,0.271758824166,0.962236661709,3.02034972657,0.0,0.0,0.0
61,1.43738048371,1.06685214113,50.7459519521,2.07418773531,0.450662269682,26.3549440218,3.52109182322,0.273586248013,0.959298819991,3.01471869775,0.0,0.0,0.0
62,1.45160567332,1.07528368629,50.4624131681,2.0782880029,0.453147583373,26.5269566905,3.53267861007,0.276200109223,0.95620664491,3.00876343607,0.0,0.0,0.0
63,1.46560932382,1.08372950197,50.181248842,2.08229104273,0.45562201671,26.6954918069,3.54402876062,0.278824516624,0.953035637123,3.00278272221,0.0,0.0,0.0
64,1.47939623264,1.09218772319,49.9024786184,2.08619899744,0.458084744637,26.860626897,3.55515005931,0.281458682731,0.949789439617,2.99677878519,0.0,0.0,0.0
65,1.49297110798,1.10065656312,49.626118146,2.09001396677,0.459433223931,27.0224386712,3.56604995382,0.283263733793,0.946572589085,2.99113351554,0.0,0.0,0.0
66,1.50633856776,1.10913431021,49.3521793697,2.09373800717,0.461861738682,27.1810029062,3.5767355732,0.285901865703,0.943192809254,2.9851068026,0.0,0.0,0.0
67,1.51950313845,1.11761932537,49.0806708131,2.09737313143,0.464276300232,27.3363943407,3.58721374466,0.288547318687,0.939748434534,2.97906311561,0.0,0.0,0.0
68,1.53246925468,1.12611003925,48.8115978376,2.10092130864,0.466676236394,27.4886865902,3.59749100947,0.2911993619,0.936242806423,2.97300424102,0.0,0.0,0.0
69,1.54524125859,1.13460494936,48.5449628957,2.10438446404,0.469060908911,27.6379520701,3.60757363754,0.293857276957,0.932679186967,2.96693187104,0.0,0.0,0.0
70,1.55782340002,1.14310261764,48.280765758,2.1077644792,0.470285465242,27.7842619384,3.61746764146,0.295615556596,0.929193503565,2.96131717443,0.0,0.0,0.0
71,1.57021983662,1.1516016678,48.0190037329,2.11106319224,0.472629317048,27.9276860451,3.62717878942,0.298269111044,0.92552991303,2.95524129969,0.0,0.0,0.0
72,1.58243463446,1.16010078303,47.7596718659,2.11428239815,0.474956180379,28.0682928957,3.63671261766,0.300926298968,0.921817685623,2.94915676084,0.0,0.0,0.0
73,1.59447176838,1.16859870344,47.5027631358,2.11742384913,0.47726554049,28.2061496178,3.64607444169,0.303586448533,0.918059748442,2.9430649296,0.0,0.0,0.0
74,1.60633512298,1.17709422389,47.2482686276,2.12048925514,0.478378637498,28.3413219417,3.65526936731,0.305288505554,0.914418487903,2.93751310087,0.0,0.0,0.0
75,1.61802849347,1.18558619174,46.9961777011,2.12348028435,0.480643054677,28.4738741843,3.66430230075,0.307938049327,0.910584344492,2.93143033516,0.0,0.0,0.0
76,1.62955558694,1.19407350481,46.7464781417,2.12639856382,0.482888588507,28.6038692425,3.67317795836,0.310588452632,0.906712810853,2.92534427016,0.0,0.0,0.0
77,1.64092002325,1.20255510917,46.4991563103,2.12924568004,0.485114827805,28.731368587,3.68190087551,0.313239083651,0.902806479229,2.9192560338,0.0,0.0,0.0
78,1.65212533655,1.21102999728,46.2541972738,2.13202317965,0.486109142045,28.856432266,3.69047541524,0.314871341708,0.899054993397,2.91379324418,0.0,0.0,0.0
79,1.66317497651,1.21949720603,46.0115849317,2.13473257014,0.488287173586,28.9791189102,3.69890577627,0.317505489742,0.895093411254,2.9077247029,0.0,0.0,0.0
80,1.67407230996,1.22795581502,45.7713021299,2.13737532061,0.490444819021,29.0994857439,3.7071960007,0.320137882625,0.8911043423,2.90165735122,0.0,0.0,0.0
81,1.68482062208,1.23640494465,45.5333307732,2.13995286244,0.491344111157,29.2175885948,3.70614839738,0.321705957243,0.89069053563,2.89934389611,0.0,0.0,0.0
82,1.69542311816,1.24484375449,45.2976519224,2.14246659015,0.49345158239,29.3334819118,3.70315436658,0.3243176237,0.890817433158,2.89705902365,0.0,0.0,0.0
83,1.70588292508,1.25327144169,45.0642458893,2.14491786212,0.495537761263,29.4472187814,3.70016430485,0.326925634246,0.890975946481,2.89483096838,0.0,0.0,0.0
84,1.71620309302,1.26168723944,44.8330923196,2.14730800141,0.497602378759,29.5588509489,3.69717737482,0.329529415632,0.891165566076,2.89266040217,0.0,0.0,0.0
85,1.7263865969,1.27009041535,44.6041702786,2.14963829655,0.498373820695,29.6684288378,3.69419279448,0.331005804517,0.891582600861,2.89125691845,0.0,0.0,0.0
86,1.73643633814,1.27848027015,44.3774583211,2.15191000232,0.500386175865,29.776001574,3.69120983328,0.333583546284,0.891831405241,2.88921046732,0.0,0.0,0.0
87,1.74635514626,1.2868561362,44.1529345614,2.15412434057,0.502376273462,29.8816170091,3.68822780854,0.336155256382,0.892109645264,2.88722309899,0.0,0.0,0.0
88,1.75614578049,1.29521737626,43.9305767373,2.15628250099,0.504343907348,29.9853217453,3.68524608211,0.338720389793,0.892416760247,2.88529530928,0.0,0.0,0.0
89,1.76581093153,1.30356338221,43.710362266,2.15838564193,0.504984017022,30.0871611619,3.68226405732,0.340093654243,0.892943421631,2.88416445001,0.0,0.0,0.0
90,1.77535322297,1.31189357376,43.492268302,2.16043489116,0.506897821388,30.1871794398,3.67928117609,0.342627720907,0.893304928883,2.88236379975,0.0,0.0,0.0
91,1.78477521305,1.32020739733,43.2762717845,2.16243134663,0.508788640716,30.285419589,3.67629691632,0.345153498782,0.893693527364,2.88062380744,0.0,0.0,0.0
92,1.79407939624,1.32850432497,43.062349484,2.16437607727,0.510656321219,30.3819234751,3.67331078935,0.347670468699,0.894108625488,2.87894480821,0.0,0.0,0.0
93,1.80326820476,1.33678385321,42.8504780446,2.16627012372,0.511162598646,30.4767318463,3.67032233776,0.348929873614,0.894734572638,2.87808932081,0.0,0.0,0.0
94,1.81234401024,1.34504550215,42.6406340214,2.16811449908,0.512975315763,30.5698843609,3.66733113316,0.351411020823,0.895199073977,2.87653915546,0.0,0.0,0.0
95,1.82130912514,1.35328881434,42.4327939188,2.16991018965,0.514764518102,30.6614196127,3.66433677429,0.353881733019,0.895688233108,2.8750505983,0.0,0.0,0.0
96,1.83016580435,1.36151335392,42.2269342215,2.17165815559,0.516530095374,30.7513751591,3.66133888513,0.35634151522,0.896201444071,2.87362384004,0.0,0.0,0.0
97,1.83891624663,1.36971870572,42.0230314246,2.17335933173,0.516900857069,30.8397875471,3.65833711321,0.357477015197,0.896916180313,2.87304388246,0.0,0.0,0.0
98,1.84756259609,1.37790447435,41.8210620616,2.17501462815,0.518610697213,30.9266923395,3.65533112806,0.359896481236,0.89747373995,2.87174646581,0.0,0.0,0.0
99,1.85610694367,1.38607028345,41.6210027274,2.17662493093,0.520296657118,31.0121241415,3.65232061965,0.362303472106,0.898053495579,2.87051105039,0.0,0.0,0.0
100,1.86455132842,1.39421577479,41.4228301043,2.17819110275,0.52195866261,31.0961166252,3.6493052971,0.364697516,0.898654840041,2.86933769904,0.0,0.0,0.0
101,1.87289773898,1.40234060761,41.2265209805,2.17971398358,0.523596647467,31.1787025556,3.64628488735,0.367078146169,0.899277167085,2.86822644534,0.0,0.0,0.0
102,1.88114811491,1.41044445782,41.0320522696,2.18119439131,0.523798696744,31.259913815,3.64325913401,0.368049245321,0.90008861814,2.86798660624,0.0,0.0,0.0
103,1.88930434795,1.41852701734,40.8394010275,2.18263312232,0.525380381001,31.3397814275,3.64022779619,0.370384326792,0.900749047831,2.86700396546,0.0,0.0,0.0
104,1.8973682834,1.42658799349,40.6485444672,2.18403095212,0.526937911717,31.4183355831,3.63719064753,0.372704547482,0.901428632878,2.86608318041,0.0,0.0,0.0
105,1.90534172127,1.43462710819,40.4594599742,2.18538863593,0.52847125128,31.4956056602,3.63414747519,0.375009463272,0.902126778225,2.86522417683,0.0,0.0,0.0
106,1.91322641755,1.44264409751,40.2721251182,2.18670690922,0.529980368376,31.5716202489,3.631098079,0.377298634995,0.902842892357,2.86442685593,0.0,0.0,0.0
107,1.92102408541,1.45063871099,40.0865176637,2.18798648831,0.530013146896,31.6464071737,3.62804227056,0.378091997184,0.903735323849,2.8645204956,0.0,0.0,0.0
108,1.92873639636,1.45861071113,39.9026155812,2.18922807085,0.531465768862,31.7199935144,3.62497987252,0.380330775389,0.904483491766,2.86384969863,0.0,0.0,0.0
109,1.93636498141,1.46655987284,39.7203970542,2.19043233642,0.532894132223,31.7924056286,3.62191071781,0.382552460721,0.905247868118,2.86323997322,0.0,0.0,0.0
110,1.9439114321,1.47448598289,39.5398404891,2.19159994698,0.534298228292,31.8636691709,3.61883464898,0.384756636744,0.906027881168,2.86269113157,0.0,0.0,0.0
111,1.95137730164,1.48238883946,39.3609245212,2.19273154738,0.53567805336,31.9338091145,3.61575151756,0.386942892021,0.906822964511,2.86220296579,0.0,0.0,0.0
112,1.95876410592,1.49026825163,39.1836280203,2.19382776585,0.535541848459,32.0028497698,3.61266118349,0.387546480006,0.907781418534,2.86262034996,0.0,0.0,0.0
113,1.96607332456,1.49812403897,39.0079300961,2.19488921449,0.536865275509,32.0708148045,3.60956351452,0.389677892151,0.908602805123,2.86225550674,0.0,0.0,0.0
114,1.97330640189,1.50595603106,38.8338101032,2.19591648969,0.53816447185,32.1377272613,3.60645838573,0.391790135102,0.909437593775,2.86195042811,0.0,0.0,0.0
115,1.98046474792,1.51376406715,38.6612476432,2.19691017259,0.539439451653,32.2036095773,3.60334567902,0.39388282075,0.910285243369,2.86170483429,0.0,0.0,0.0
116,1.98754973925,1.52154799565,38.4902225701,2.1978708295,0.540690232991,32.2684836001,3.60022528272,0.395955566098,0.911145219216,2.86151842938,0.0,0.0,0.0
117,1.99456271999,1.52930767383,38.3207149909,2.19879901234,0.541916837683,32.332370606,3.59709709108,0.398007993322,0.912016993228,2.86139090213,0.0,0.0,0.0
118,2.00150500268,1.53704296744,38.1527052685,2.19969525903,0.54158070957,32.3952913164,3.59396100395,0.398372541627,0.913036585827,2.8621801773,0.0,0.0,0.0
119,2.00837786911,1.54475375034,37.9861740228,2.20056009388,0.54275132202,32.4572659137,3.59081692638,0.400365317005,0.913928239849,2.86217104418,0.0,0.0,0.0
120,2.01518257117,1.55243990417,37.821102132,2.20139402797,0.543897868664,32.5183140572,3.58766476826,0.402336648709,0.914830152634,2.86221959767,0.0,0.0,0.0
