,theta i [rad],r orb [AU],v orb [km s-1],ang orb [rad],r L1 [AU],v i [km s-1],ang i [rad],a p [AU],e p,theta p i [rad],flag impact,v imp [km s-1],ang imp [rad]
0,0.0,0.72,65.8647800854,1.57079632679,0.339459462989,10.1279511086,1.57079632679,0.173126519071,0.960759477001,3.14159265359,0.0,0.0,0.0
1,0.0314749859677,0.720133754892,65.8571337212,1.582599142,0.339522524605,10.1455364506,1.64748462581,0.173171372399,0.960851654124,3.14472371569,0.0,0.0,0.0
2,0.0629266069621,0.720534787863,65.834219574,1.59439137019,0.33971160021,10.1980413579,1.72369683286,0.173305894101,0.961127194955,3.14782840004,0.0,0.0,0.0
3,0.0943316160532,0.721202405401,65.7961122333,1.60616247888,0.340026362833,10.2847260191,1.79897762963,0.173529969615,0.961583143951,3.15088061199,0.0,0.0,0.0
4,0.125667001323,0.722135457005,65.7429351961,1.61790204407,0.340466270046,10.4044008815,1.87291099125,0.173843408959,0.962214628321,3.15385481619,0.0,0.0,0.0
5,0.156910100038,0.723332343149,65.6748596535,1.62959980291,0.341030567717,10.5554863226,1.94513464119,0.174245948146,0.963014936067,3.15672629927,0.0,0.0,0.0
6,0.188038707145,0.72479102621,65.5921028299,1.6412457038,0.341718295166,10.7360863363,2.01534938029,0.174737251124,0.963975622033,3.15947141276,0.0,0.0,0.0
7,0.219031179626,0.726509044281,65.4949258994,1.65282995445,0.341801055401,10.9440688302,2.08332308731,0.174935900431,0.965160320981,3.16202275361,0.0,0.0,0.0
8,0.249866532686,0.728483527578,65.3836315269,1.66434306618,0.342729991486,11.1771456102,2.14888991199,0.175601581779,0.966407407024,3.16444423197,0.0,0.0,0.0
9,0.280524528553,0.730711217237,65.2585610748,1.67577589477,0.343778053688,11.4329465401,2.2119456831,0.176354365353,0.967780280602,3.16667725343,0.0,0.0,0.0
10,0.310985756371,0.733188486233,65.1200915284,1.68711967715,0.344209613196,11.7090841515,2.27244075653,0.17680634931,0.969329714372,3.16864484094,0.0,0.0,0.0
11,0.341231702646,0.735911362106,64.9686321926,1.6983660637,0.345487920288,12.0032067924,2.33037149613,0.177728891178,0.970908264034,3.17044650109,0.0,0.0,0.0
12,0.371244811781,0.738875551209,64.8046212174,1.70950714589,0.346879516573,12.3130399074,2.38577138758,0.178736341161,0.972568396906,3.17201337175,0.0,0.0,0.0
13,0.401008536433,0.742076464141,64.6285220061,1.72053547926,0.347639428192,12.6364161407,2.43870252176,0.179432142156,0.974347920115,3.17326418581,1.0,613.826662862,1.47146521683
14,0.430507377601,0.745509242068,64.4408195624,1.73144410153,0.349247576411,12.9712956076,2.48924791739,0.180603780589,0.976119244634,3.17432571891,1.0,613.852795176,1.30023466281
15,0.459726914558,0.749168783614,64.2420168278,1.74222654606,0.350212037538,13.3157779843,2.53750492541,0.181455041453,0.977969491282,3.1750499926,1.0,613.871569411,1.18933851878
16,0.488653824858,0.753049772012,64.0326310591,1.75287685067,0.352026273356,13.6681081013,2.58357978579,0.182786586045,0.979786457623,3.17557622501,1.0,613.900584299,1.10318924341
17,0.51727589485,0.757146702257,63.8131902898,1.76338956208,0.353183550362,14.0266765996,2.62758329282,0.183787933504,0.981642068759,3.17575356579,1.0,613.922126206,1.02244903402
18,0.545582021189,0.761453907973,63.584229915,1.77375973615,0.354430501275,14.3900169975,2.66962745789,0.184860129992,0.983474710166,3.17565412876,1.0,613.94493273,0.948213365922
19,0.573562203887,0.765965587754,63.3462894347,1.78398293424,0.356530532404,14.7568002721,2.7098230277,0.186420736785,0.985238815063,3.17535194694,1.0,613.977657858,0.880921996266
20,0.601207532231,0.770675830866,63.0999093793,1.7940552162,0.357951540636,15.1258278372,2.74827771031,0.187634389925,0.986984731937,3.17470000221,1.0,614.00273008,0.813825099659
21,0.628510162702,0.775578641858,62.8456284516,1.80397312986,0.359452367127,15.4960235618,2.78509496619,0.188914164493,0.988664584237,3.17377571215,1.0,614.028818232,0.749068116982
22,0.655463291897,0.780667964281,62.5839808857,1.81373369798,0.361811082124,15.8664253482,2.82037324307,0.190692489923,0.990245611199,3.17265083826,1.0,614.064486177,0.687836119058
23,0.682061123574,0.785937703122,62.3154940473,1.8233344027,0.363466689118,16.2361765978,2.85420554643,0.192104909498,0.991759182533,3.17119176344,1.0,614.092343166,0.625976968755
24,0.708298831212,0.791381745934,62.0406862775,1.83277316787,0.36519218065,16.6045178166,2.88667925982,0.193578692125,0.993171034111,3.16947459016,1.0,614.12097571,0.565160366965
25,0.734172517337,0.796993982685,61.7600649765,1.84204833985,0.366984219855,16.9707785244,2.91787614624,0.195112186694,0.994471231527,3.16750581316,1.0,614.150307754,0.505126686994
26,0.759679168909,0.802768323981,61.4741249411,1.85115866671,0.369643075707,17.3343695489,2.94787247463,0.197160913272,0.995641954818,3.1653443505,1.0,614.188780823,0.446696416102
27,0.784816611473,0.808698718037,61.1833469297,1.8601032767,0.371564279465,17.6947757882,2.97673923223,0.198815230326,0.99669509904,3.1628887043,1.0,614.219266929,0.38746694087
28,0.809583461135,0.814779166055,60.8881964618,1.86888165584,0.373542404071,18.0515494452,3.00454238964,0.200524607077,0.997612339684,3.16020340185,1.0,614.250237728,0.32846914703
29,0.833979076106,0.821003736281,60.5891228304,1.87749362536,0.375574285386,18.4043037544,3.03134319666,0.202287451694,0.998387580322,3.1572965894,1.0,614.281627439,0.269553088667
30,0.858003506956,0.827366576402,60.2865583295,1.88593931857,0.377656819285,18.7527071726,3.05719849061,0.204102192969,0.99901563554,3.15417658773,1.0,614.313373196,0.210576910055
31,0.88165744778,0.833861924764,59.9809176637,1.89421915821,0.379786966367,19.0964780398,3.08216100713,0.205967282033,0.999492195519,3.1508518162,1.0,614.345415128,0.15140196726
32,0.904942187858,0.840484120249,59.6725975338,1.90233383397,0.381961755989,19.4353796757,3.10627968427,0.207881193832,0.99981378585,3.14733072579,1.0,614.37769641,0.0918884765687
33,0.927859563376,0.847227610639,59.3619763936,1.91028428026,0.384178289556,19.7692158728,3.12959995363,0.20984242829,0.99997772371,3.14362174064,1.0,614.41016328,0.0318913076023
34,0.950411911243,0.854086960003,59.0494143405,1.9180716548,0.386433743318,20.0978267864,3.15216401711,0.211849511334,0.999982071489,3.13973320746,1.0,614.442765036,-0.0287444305194
35,0.972602024307,0.861056854932,58.7352531363,1.92569731798,0.388725370605,20.4210851789,3.17401110617,0.213900995725,0.99982558872,3.1356733524,1.0,614.47545401,-0.0901883752942
36,0.994433107457,0.868132109447,58.4198163535,1.9331628127,0.391050503421,20.7388929818,3.19517772228,0.215995461596,0.999507683169,3.13145024497,1.0,614.508185523,-0.152630914897
37,1.01590873644,0.875307669178,58.1034096088,1.94046984538,0.393406553688,21.0511781747,3.21569785999,0.218131516914,0.999028361749,3.12707176799,1.0,614.540917824,-0.21629082391
38,1.03703281859,0.882578614615,57.7863208831,1.94762026798,0.395791014042,21.3578919449,3.23560321222,0.220307797791,0.998388181847,3.12254559334,1.0,614.573612018,-0.281425425436
39,1.0578095548,0.889940163231,57.4688209269,1.95461606059,0.398201458109,21.6590060918,3.25492335778,0.222522968528,0.99758820359,3.11787916282,1.0,614.606231975,-0.348344680514
40,1.07824340462,0.897387671167,57.1511637113,1.96145931545,0.400635540575,21.9545106838,3.27368593373,0.224775721661,0.996629943401,3.1130796735,1.0,614.638744241,-0.417431523268
41,1.09833905279,0.904916634014,56.8335869378,1.96815222172,0.403090996833,22.2444119241,3.29191679227,0.227064777813,0.995515329208,3.10815406709,1.0,614.671117933,-0.48917245351
42,1.11810137852,0.912522687132,56.5163125797,1.97469705142,0.405565642436,22.528730222,3.30964014417,0.229388885495,0.994246657509,3.10310902271,1.0,614.703324635,-0.564205775723
43,1.13753542602,0.920201605146,56.1995474655,1.98109614616,0.407136249444,22.8074984382,3.32687868879,0.231152802955,0.992840601002,3.09805014584,1.0,614.727335013,-0.641720164279
44,1.15664637788,0.927949301184,55.8834838732,1.98735190496,0.40963528083,23.080760306,3.34365373304,0.233533396134,0.991275007086,3.09279758025,1.0,614.759163031,-0.726004380299
45,1.17543953035,0.93576182567,55.56830014,1.99346677311,0.412147354383,23.3485690055,3.35998529962,0.235945240665,0.989564327561,3.08744435173,1.0,614.790752276,-0.817513643839
46,1.19392026998,0.943635364477,55.2541612901,1.99944323168,0.414670599345,23.6109858692,3.37589222507,0.23838719304,0.987711938282,3.08199606808,1.0,614.82208304,-0.919369018051
47,1.21209405275,0.951566237015,54.9412196542,2.00528378804,0.417203218779,23.8680792239,3.39139224956,0.240858135259,0.985721401619,3.07645807703,1.0,614.85313752,-1.03756208702
48,1.22996638499,0.959550894019,54.6296154876,2.01099096736,0.418782976529,24.1199233496,3.40650209869,0.242711478103,0.983628261115,3.07099994501,1.0,614.876014094,-1.18142741848
49,1.24754280535,0.967585914829,54.3194775918,2.01656730455,0.421321197916,24.3665975355,3.42123755756,0.245226155999,0.981377004656,3.06531161657,1.0,614.90649959,-1.43799567149
50,1.26482886904,0.975668004751,54.010923915,2.02201533719,0.423863781617,24.6081852422,3.43561353891,0.247766410854,0.978999346183,3.05954844544,0.0,0.0,0.0
51,1.28183013355,0.983793992234,53.7040621408,2.02733759919,0.42640921163,24.8447733512,3.44964414522,0.25033122067,0.976499312042,3.05371480054,0.0,0.0,0.0
52,1.29855214518,0.991960825641,53.398990272,2.03253661489,0.427963082728,25.0764514866,3.46334272512,0.252229475629,0.973931303218,3.04803738886,0.0,0.0,0.0
53,1.31500042753,1.00016557021,53.0957971858,2.03761489392,0.43050170069,25.303311418,3.47672192544,0.254828636998,0.971203945016,3.04209033566,0.0,0.0,0.0
54,1.33118047122,1.0084054049,52.7945631714,2.04257492669,0.433038961472,25.5254465291,3.48979373885,0.257449214435,0.968366764831,3.03608492098,0.0,0.0,0.0
55,1.34709772414,1.01667761897,52.495360458,2.04741918022,0.435573598332,25.7429513379,3.50256954715,0.260090270339,0.96542391588,3.03002466933,0.0,0.0,0.0
56,1.3627575835,1.02497960875,52.1982537107,2.05215009457,0.43707839555,25.9559210811,3.51506016154,0.262013134876,0.962451492665,3.02419860513,0.0,0.0,0.0
57,1.37816538843,1.03330887428,51.9033005118,2.05677007976,0.439595871274,26.1644513411,3.52727585927,0.264679856902,0.959315540848,3.01805507989,0.0,0.0,0.0
58,1.39332641381,1.04166301611,51.6105518152,2.06128151305,0.4421072299,26.3686377229,3.53922641772,0.267364157522,0.956086447794,3.01186651063,0.0,0.0,0.0
59,1.40824586445,1.0500397318,51.3200523896,2.06568673653,0.443560331006,26.5685755627,3.55092114535,0.269289950684,0.952858166371,3.00597199713,0.0,0.0,0.0
60,1.42292887054,1.05843681278,51.0318412305,2.0699880552,0.44604794999,26.7643596805,3.56236891064,0.271993716758,0.949461133614,2.99971916386,0.0,0.0,0.0
61,1.43738048371,1.06685214113,50.7459519521,2.07418773531,0.448526429573,26.9560841643,3.57357816886,0.274712319209,0.945983095799,2.99342962474,0.0,0.0,0.0
62,1.45160567332,1.07528368629,50.4624131681,2.0782880029,0.449918503254,27.1438421766,3.58455698641,0.27663068785,0.942536989564,2.98749539944,0.0,0.0,0.0
63,1.46560932382,1.08372950197,50.181248842,2.08229104273,0.452367573781,27.3277257953,3.59531306378,0.279362865023,0.93891509075,2.98115792695,0.0,0.0,0.0
64,1.47939623264,1.09218772319,49.9024786184,2.08619899744,0.454804901644,27.5078258766,3.60585375684,0.282107276313,0.935223729407,2.97479085897,0.0,0.0,0.0
65,1.49297110798,1.10065656312,49.626118146,2.09001396677,0.456127948987,27.6842319331,3.61618609618,0.284008349978,0.931595752306,2.96884197211,0.0,0.0,0.0
66,1.50633856776,1.10913431021,49.3521793697,2.09373800717,0.458531005038,27.8570320384,3.62631680558,0.28676072245,0.927783203673,2.96244105844,0.0,0.0,0.0
67,1.51950313845,1.11761932537,49.0806708131,2.09737313143,0.460920086061,28.0263127439,3.63625231893,0.289522850613,0.923912014046,2.95601663594,0.0,0.0,0.0
68,1.53246925468,1.12611003925,48.8115978376,2.10092130864,0.462167287314,28.1921590145,3.64599879615,0.291397198518,0.920135676963,2.95007507587,0.0,0.0,0.0
69,1.54524125859,1.13460494936,48.5449628957,2.10438446404,0.464517946177,28.3546541716,3.65556213776,0.294161922375,0.916164379424,2.94362903869,0.0,0.0,0.0
70,1.55782340002,1.14310261764,48.280765758,2.1077644792,0.466852724669,28.5138798544,3.66494799882,0.296934033119,0.912144470346,2.93716473462,0.0,0.0,0.0
71,1.57021983662,1.1516016678,48.0190037329,2.11106319224,0.468018299386,28.6699159879,3.67416180173,0.298772627133,0.908250649193,2.93124997436,0.0,0.0,0.0
72,1.58243463446,1.16010078303,47.7596718659,2.11428239815,0.470311132226,28.8228407634,3.6832087484,0.301542190823,0.904150025315,2.92477476555,0.0,0.0,0.0
73,1.59447176838,1.16859870344,47.5027631358,2.11742384913,0.471416698164,28.972730622,3.68434652051,0.303347454065,0.902840862984,2.92136069457,0.0,0.0,0.0
74,1.60633512298,1.17709422389,47.2482686276,2.12048925514,0.473665547539,29.1196602513,3.6817493195,0.306111053596,0.902643150993,2.91858057926,0.0,0.0,0.0
75,1.61802849347,1.18558619174,46.9961777011,2.12348028435,0.475895962845,29.2637025841,3.67915582983,0.30887824408,0.902479913854,2.91585106542,0.0,0.0,0.0
76,1.62955558694,1.19407350481,46.7464781417,2.12639856382,0.476912244672,29.4049288067,3.67656488,0.310633415014,0.902530210489,2.91380051911,0.0,0.0,0.0
77,1.64092002325,1.20255510917,46.4991563103,2.12924568004,0.479096033498,29.5434083664,3.67397538826,0.313389829069,0.902434170663,2.91118429572,0.0,0.0,0.0
78,1.65212533655,1.21102999728,46.2541972738,2.13202317965,0.481260173114,29.6792089886,3.67138635561,0.316147703646,0.902371524853,2.90862178964,0.0,0.0,0.0
79,1.66317497651,1.21949720603,46.0115849317,2.13473257014,0.482183584,29.8123966945,3.6687968595,0.317844704176,0.902518996264,2.90676677216,0.0,0.0,0.0
80,1.67407230996,1.22795581502,45.7713021299,2.13737532061,0.484298894055,29.9430358241,3.66620604798,0.320587164336,0.902520931298,2.90432290665,0.0,0.0,0.0
81,1.68482062208,1.23640494465,45.5333307732,2.13995286244,0.485155898254,30.0711890583,3.66361313436,0.322236141142,0.902730377224,2.9026044599,0.0,0.0,0.0
82,1.69542311816,1.24484375449,45.2976519224,2.14246659015,0.487221133202,30.1969174466,3.66101739221,0.324960098383,0.902794882938,2.90028215432,0.0,0.0,0.0
83,1.70588292508,1.25327144169,45.0642458893,2.14491786212,0.489265131458,30.320280435,3.65841815079,0.327682071717,0.902890469992,2.89801763446,0.0,0.0,0.0
84,1.71620309302,1.26168723944,44.8330923196,2.14730800141,0.490024677661,30.4413358972,3.65581479087,0.329260043289,0.903188919656,2.89650414937,0.0,0.0,0.0
85,1.7263865969,1.27009041535,44.6041702786,2.14963829655,0.492017011843,30.560140163,3.65320674081,0.331959147392,0.903343863465,2.89436491517,0.0,0.0,0.0
86,1.73643633814,1.27848027015,44.3774583211,2.15191000232,0.493987375747,30.6767480523,3.65059347302,0.334654321651,0.903528300988,2.89228532803,0.0,0.0,0.0
87,1.74635514626,1.2868561362,44.1529345614,2.15412434057,0.494647407819,30.791212907,3.6479745006,0.336154051087,0.903910345542,2.89098057884,0.0,0.0,0.0
88,1.75614578049,1.29521737626,43.9305767373,2.15628250099,0.496564824047,30.9035866244,3.64534937432,0.33882213952,0.904150686534,2.88902910896,0.0,0.0,0.0
89,1.76581093153,1.30356338221,43.710362266,2.15838564193,0.49715480756,31.0139196915,3.64271767975,0.340260760956,0.904584985734,2.8878671772,0.0,0.0,0.0
90,1.77535322297,1.31189357376,43.492268302,2.16043489116,0.499018580745,31.122261217,3.64007903472,0.342898963487,0.904878804276,2.88604513765,0.0,0.0,0.0
91,1.78477521305,1.32020739733,43.2762717845,2.16243134663,0.500859467199,31.2286589668,3.63743308686,0.345530079454,0.905199229903,2.88428487281,0.0,0.0,0.0
92,1.79407939624,1.32850432497,43.062349484,2.16437607727,0.501347482152,31.3331593967,3.63477951138,0.346879027331,0.905707573288,2.88333485281,0.0,0.0,0.0
93,1.80326820476,1.33678385321,42.8504780446,2.16627012372,0.503133866836,31.4358076866,3.63211800904,0.349476289114,0.906077794899,2.8817054957,0.0,0.0,0.0
94,1.81234401024,1.34504550215,42.6406340214,2.16811449908,0.504896964439,31.5366477741,3.62944830418,0.352064676952,0.906472823302,2.88013871877,0.0,0.0,0.0
95,1.82130912514,1.35328881434,42.4327939188,2.16991018965,0.505282013944,31.635722386,3.62677014301,0.353317532428,0.907049370898,2.87940101505,0.0,0.0,0.0
96,1.83016580435,1.36151335392,42.2269342215,2.17165815559,0.506989961809,31.7330730725,3.62408329198,0.355868241431,0.907490456542,2.87796590034,0.0,0.0,0.0
97,1.83891624663,1.36971870572,42.0230314246,2.17335933173,0.508674318336,31.8287402383,3.62138753623,0.358408345178,0.907954523641,2.87659383244,0.0,0.0,0.0
98,1.84756259609,1.37790447435,41.8210620616,2.17501462815,0.508955710954,31.9227631745,3.61868267822,0.359558997485,0.908593435098,2.87606778436,0.0,0.0,0.0
99,1.85610694367,1.38607028345,41.6210027274,2.17662493093,0.510584452976,32.0151800902,3.61596853641,0.362057742451,0.909099813433,2.87482747543,0.0,0.0,0.0
100,1.86455132842,1.39421577479,41.4228301043,2.17819110275,0.512189382953,32.1060281417,3.61324494408,0.364544207021,0.90962734593,2.87365037176,0.0,0.0,0.0
101,1.87289773898,1.40234060761,41.2265209805,2.17971398358,0.512366692705,32.1953434634,3.61051174823,0.365586860659,0.91032284661,2.87333435859,0.0,0.0,0.0
102,1.88114811491,1.41044445782,41.0320522696,2.18119439131,0.513915702591,32.2831611964,3.60776880849,0.368028433831,0.910888978221,2.87228851688,0.0,0.0,0.0
103,1.88930434795,1.41852701734,40.8394010275,2.18263312232,0.515440752297,32.3695155174,3.60501599624,0.370456108415,0.91147445376,2.87130576081,0.0,0.0,0.0
104,1.8973682834,1.42658799349,40.6485444672,2.18403095212,0.515513783694,32.4544396669,3.60225319367,0.371385292014,0.912220887855,2.8711973034,0.0,0.0,0.0
105,1.90534172127,1.43462710819,40.4594599742,2.18538863593,0.516982745963,32.5379659755,3.59948029295,0.373764693801,0.912841317533,2.8703447804,0.0,0.0,0.0
106,1.91322641755,1.44264409751,40.2721251182,2.18670690922,0.518427662944,32.6201258909,3.59669719554,0.376128637184,0.913479313324,2.86955497433,0.0,0.0,0.0
107,1.92102408541,1.45063871099,40.0865176637,2.18798648831,0.518396420535,32.7009500043,3.59390381139,0.376939213765,0.91427118548,2.86965083221,0.0,0.0,0.0
108,1.92873639636,1.45861071113,39.9026155812,2.18922807085,0.51978520266,32.7804680747,3.59110005835,0.379251658985,0.914940583824,2.86898975756,0.0,0.0,0.0
109,1.93636498141,1.46655987284,39.7203970542,2.19043233642,0.521149909071,32.8587090545,3.58828586152,0.381547146259,0.915625815014,2.86839080974,0.0,0.0,0.0
110,1.9439114321,1.47448598289,39.5398404891,2.19159994698,0.521014570848,32.9357011121,3.5854611527,0.382234324348,0.916457821827,2.86868707273,0.0,0.0,0.0
111,1.95137730164,1.48238883946,39.3609245212,2.19273154738,0.522323199011,33.0114716562,3.58262586989,0.384475249787,0.917171017465,2.86821493771,0.0,0.0,0.0
112,1.95876410592,1.49026825163,39.1836280203,2.19382776585,0.523607768419,33.0860473577,3.57977995676,0.386697780281,0.917898366507,2.86780414409,0.0,0.0,0.0
113,1.96607332456,1.49812403897,39.0079300961,2.19488921449,0.524868286262,33.1594541718,3.57692336221,0.388901471588,0.91863932356,2.86745445076,0.0,0.0,0.0
114,1.97330640189,1.50595603106,38.8338101032,2.19591648969,0.524597300459,33.2317173596,3.57405603997,0.389422198245,0.919517422841,2.8680100537,0.0,0.0,0.0
115,1.98046474792,1.51376406715,38.6612476432,2.19691017259,0.525801937595,33.3028615085,3.57117794819,0.391567504237,0.920281961051,2.86778417444,0.0,0.0,0.0
116,1.98754973925,1.52154799565,38.4902225701,2.1978708295,0.526982593451,33.3729105519,3.56828904908,0.393692617369,0.921058508476,2.86761838682,0.0,0.0,0.0
117,1.99456271999,1.52930767383,38.3207149909,2.19879901234,0.528139291132,33.4418877893,3.56538930858,0.395797116561,0.921846546256,2.86751238157,0.0,0.0,0.0
118,2.00150500268,1.53704296744,38.1527052685,2.19969525903,0.52773347569,33.5098159048,3.56247869605,0.396144133402,0.922762224449,2.86831864052,0.0,0.0,0.0
119,2.00837786911,1.54475375034,37.9861740228,2.20056009388,0.528834621627,33.5767169856,3.55955718395,0.398186711549,0.923569703912,2.8683329123,0.0,0.0,0.0
