,t,x,y,vx,vy,t [min],x [RSun],y [RSun],vx [km s-1],vy [km s-1]
0,0.0,-0.190099186786,0.0,0.0,-0.218991722305,0.0,-53.1559505856,0.0,0.0,0.0
1,1.1955570724e-05,-0.190099186786,-2.61817102399e-06,-6.62364499403e-05,-0.218991722305,1.0,-53.1559505856,-0.000732098710829,-0.00256675770547,-0.00256675770547
2,0.000609734106925,-0.190100196452,-0.000133526272618,-0.00337806126927,-0.218989419875,51.0,-53.1562329106,-0.0373369085327,-0.130904732972,-0.130904732972
3,0.00120751264313,-0.190103185859,-0.000264431675496,-0.00668990004834,-0.218982602853,101.0,-53.1570688152,-0.0739409637336,-0.259243249199,-0.259243249199
4,0.00180529117933,-0.19010815502,-0.000395331680912,-0.010001766758,-0.218971271166,151.0,-53.1584583028,-0.110543509684,-0.387582847775,-0.387582847775
5,0.00240306971553,-0.190115103955,-0.000526223590063,-0.0133136753716,-0.218955424693,201.0,-53.1604013792,-0.14714379174,-0.515924070193,-0.515924070193
6,0.00300084825173,-0.190124032694,-0.00065710470406,-0.0166256398668,-0.218935063263,251.0,-53.1628980527,-0.183741055231,-0.6442674581,-0.6442674581
7,0.00359862678793,-0.190134941273,-0.000787972323896,-0.0199376742264,-0.218910186659,301.0,-53.1659483336,-0.220334545455,-0.772613553351,-0.772613553351
8,0.00419640532413,-0.19014782974,-0.000918823750423,-0.0232497924398,-0.218880794613,351.0,-53.1695522348,-0.25692350767,-0.90096289806,-0.90096289806
9,0.00479418386033,-0.190162698148,-0.00104965628431,-0.0265620085045,-0.21884688681,401.0,-53.1737097716,-0.293507187086,-1.02931603465,-1.02931603465
10,0.00539196239654,-0.190179546559,-0.00118046722605,-0.0298743364275,-0.218808462886,451.0,-53.1784209613,-0.330084828854,-1.15767350591,-1.15767350591
11,0.00598974093274,-0.190198375046,-0.00131125387586,-0.0331867902264,-0.218765522429,501.0,-53.1836858238,-0.366655678063,-1.28603585503,-1.28603585503
12,0.00658751946894,-0.190219183686,-0.00144201353373,-0.0364993839306,-0.218718064977,551.0,-53.1895043813,-0.403218979726,-1.4144036257,-1.4144036257
13,0.00718529800514,-0.190241972568,-0.00157274349935,-0.0398121315832,-0.21866609002,601.0,-53.1958766584,-0.439773978778,-1.54277736208,-1.54277736208
14,0.00778307654134,-0.190266741788,-0.0017034410721,-0.0431250472418,-0.218609597001,651.0,-53.2028026819,-0.476319920063,-1.67115760894,-1.67115760894
15,0.00838085507754,-0.190293491451,-0.00183410355099,-0.0464381449803,-0.218548585311,701.0,-53.2102824811,-0.512856048327,-1.79954491165,-1.79954491165
16,0.00897863361374,-0.190322221669,-0.00196472823468,-0.0497514388898,-0.218483054294,751.0,-53.2183160875,-0.549381608213,-1.92793981627,-1.92793981627
17,0.00957641214995,-0.190352932564,-0.00209531242139,-0.0530649430802,-0.218413003247,801.0,-53.2269035352,-0.585895844249,-2.05634286959,-2.05634286959
18,0.0101741906861,-0.190385624265,-0.00222585340895,-0.0563786716815,-0.218338431415,851.0,-53.2360448603,-0.622398000839,-2.18475461915,-2.18475461915
19,0.0107719692223,-0.190420296912,-0.00235634849468,-0.0596926388454,-0.218259337996,901.0,-53.2457401016,-0.658887322261,-2.31317561334,-2.31317561334
20,0.0113697477585,-0.19045695065,-0.00248679497543,-0.0630068587461,-0.218175722138,951.0,-53.2559893002,-0.695363052653,-2.44160640146,-2.44160640146
21,0.0119675262948,-0.190495585636,-0.00261719014752,-0.0663213455821,-0.218087582943,1001.0,-53.2667924993,-0.731824436006,-2.5700475337,-2.5700475337
22,0.012565304831,-0.190536202032,-0.00274753130673,-0.0696361135775,-0.217994919459,1051.0,-53.2781497449,-0.768270716157,-2.69849956127,-2.69849956127
23,0.0131630833672,-0.190578800011,-0.00287781574824,-0.0729511769833,-0.217897730689,1101.0,-53.290061085,-0.804701136781,-2.82696303642,-2.82696303642
24,0.0137608619034,-0.190623379754,-0.00300804076663,-0.0762665500786,-0.217796015586,1151.0,-53.3025265703,-0.841114941382,-2.95543851249,-2.95543851249
25,0.0143586404396,-0.19066994145,-0.00313820365583,-0.0795822471725,-0.217689773052,1201.0,-53.3155462536,-0.877511373283,-3.08392654396,-3.08392654396
26,0.0149564189758,-0.190718485297,-0.00326830170911,-0.0828982826047,-0.217579001942,1251.0,-53.3291201903,-0.913889675623,-3.21242768653,-3.21242768653
27,0.015554197512,-0.190769011501,-0.00339833221904,-0.0862146707476,-0.21746370106,1301.0,-53.3432484381,-0.950249091343,-3.34094249715,-3.34094249715
28,0.0161519760482,-0.190821520278,-0.00352829247745,-0.0895314260073,-0.217343869163,1351.0,-53.3579310571,-0.98658886318,-3.46947153408,-3.46947153408
29,0.0167497545844,-0.190876011851,-0.00365817977542,-0.092848562825,-0.217219504955,1401.0,-53.37316811,-1.02290823366,-3.59801535692,-3.59801535692
30,0.0173475331206,-0.190932486452,-0.00378799140325,-0.0961660956786,-0.217090607093,1451.0,-53.3889596616,-1.05920644509,-3.72657452672,-3.72657452672
31,0.0179453116568,-0.190990944323,-0.00391772465041,-0.0994840390837,-0.216957174185,1501.0,-53.4053057793,-1.09548273954,-3.85514960599,-3.85514960599
32,0.018543090193,-0.191051385713,-0.00404737680552,-0.102802407595,-0.216819204787,1551.0,-53.4222065331,-1.13173635886,-3.98374115875,-3.98374115875
33,0.0191408687292,-0.19111381088,-0.00417694515634,-0.10612121581,-0.216676697406,1601.0,-53.439661995,-1.16796654464,-4.11234975062,-4.11234975062
34,0.0197386472654,-0.191178220092,-0.0043064269897,-0.109440478365,-0.2165296505,1651.0,-53.4576722398,-1.20417253822,-4.24097594883,-4.24097594883
35,0.0203364258016,-0.191244613625,-0.00443581959151,-0.112760209941,-0.216378062476,1701.0,-53.4762373448,-1.24035358067,-4.36962032232,-4.36962032232
36,0.0209342043378,-0.191312991763,-0.00456512024671,-0.116080425267,-0.216221931692,1751.0,-53.4953573893,-1.27650891282,-4.49828344178,-4.49828344178
37,0.021531982874,-0.1913833548,-0.00469432623925,-0.119401139114,-0.216061256454,1801.0,-53.5150324556,-1.31263777518,-4.62696587966,-4.62696587966
38,0.0221297614102,-0.191455703038,-0.00482343485203,-0.122722366304,-0.215896035021,1851.0,-53.5352626282,-1.348739408,-4.75566821029,-4.75566821029
39,0.0227275399464,-0.191530036788,-0.00495244336691,-0.126044121706,-0.215726265598,1901.0,-53.556047994,-1.38481305123,-4.88439100992,-4.88439100992
40,0.0233253184826,-0.19160635637,-0.00508134906467,-0.129366420241,-0.215551946341,1951.0,-53.5773886427,-1.42085794451,-5.01313485675,-5.01313485675
41,0.0239230970188,-0.191684662114,-0.00521014922497,-0.132689276883,-0.215373075357,2001.0,-53.5992846662,-1.45687332717,-5.141900331,-5.141900331
42,0.024520875555,-0.191764954358,-0.0053388411263,-0.136012706657,-0.2151896507,2051.0,-53.621736159,-1.49285843823,-5.27068801496,-5.27068801496
43,0.0251186540912,-0.191847233448,-0.00546742204601,-0.139336724646,-0.215001670374,2101.0,-53.6447432183,-1.52881251636,-5.39949849308,-5.39949849308
44,0.0257164326274,-0.191931499741,-0.00559588926021,-0.142661345987,-0.214809132332,2151.0,-53.6683059434,-1.56473479991,-5.52833235198,-5.52833235198
45,0.0263142111636,-0.192017753601,-0.00572424004378,-0.145986585877,-0.214612034476,2201.0,-53.6924244366,-1.60062452687,-5.65719018053,-5.65719018053
46,0.0269119896998,-0.192105995403,-0.00585247167034,-0.149312459571,-0.214410374658,2251.0,-53.7170988024,-1.63648093488,-5.78607256991,-5.78607256991
47,0.027509768236,-0.192196225531,-0.0059805814122,-0.152638982387,-0.214204150676,2301.0,-53.7423291481,-1.67230326123,-5.91498011366,-5.91498011366
48,0.0281075467722,-0.192288444376,-0.00610856654036,-0.155966169702,-0.213993360279,2351.0,-53.7681155834,-1.70809074283,-6.04391340774,-6.04391340774
49,0.0287053253084,-0.192382652341,-0.00623642432442,-0.15929403696,-0.213778001164,2401.0,-53.7944582207,-1.74384261618,-6.1728730506,-6.1728730506
50,0.0293031038446,-0.192478849836,-0.00636415203263,-0.16262259967,-0.213558070975,2451.0,-53.8213571749,-1.77955811745,-6.30185964319,-6.30185964319
51,0.0299008823808,-0.192577037283,-0.00649174693178,-0.165951873407,-0.213333567306,2501.0,-53.8488125635,-1.81523648235,-6.43087378911,-6.43087378911
52,0.030498660917,-0.192677215109,-0.00661920628724,-0.169281873815,-0.213104487696,2551.0,-53.8768245066,-1.85087694624,-6.55991609457,-6.55991609457
53,0.0310964394532,-0.192779383756,-0.00674652736287,-0.172612616608,-0.212870829636,2601.0,-53.905393127,-1.88647874401,-6.68898716852,-6.68898716852
54,0.0316942179894,-0.19288354367,-0.00687370742103,-0.175944117571,-0.212632590562,2651.0,-53.9345185501,-1.92204111017,-6.81808762267,-6.81808762267
55,0.0322919965256,-0.192989695309,-0.00700074372251,-0.179276392564,-0.212389767857,2701.0,-53.9642009039,-1.95756327877,-6.94721807157,-6.94721807157
56,0.0328897750618,-0.193097839142,-0.00712763352655,-0.182609457519,-0.212142358853,2751.0,-53.9944403191,-1.99304448343,-7.07637913266,-7.07637913266
57,0.033487553598,-0.193207975645,-0.00725437409075,-0.185943328447,-0.211890360828,2801.0,-54.025236929,-2.02848395733,-7.20557142634,-7.20557142634
58,0.0340853321342,-0.193320105304,-0.0073809626711,-0.189278021435,-0.211633771009,2851.0,-54.0565908697,-2.06388093317,-7.33479557602,-7.33479557602
59,0.0346831106704,-0.193434228616,-0.00750739652188,-0.192613552649,-0.211372586567,2901.0,-54.0885022798,-2.09923464319,-7.4640522082,-7.4640522082
60,0.0352808892066,-0.193550346086,-0.00763367289569,-0.195949938338,-0.211106804622,2951.0,-54.120971301,-2.13454431915,-7.5933419525,-7.5933419525
61,0.0358786677428,-0.193668458231,-0.00775978904339,-0.199287194833,-0.21083642224,3001.0,-54.1539980772,-2.16980919234,-7.72266544176,-7.72266544176
62,0.036476446279,-0.193788565574,-0.00788574221406,-0.202625338547,-0.210561436432,3051.0,-54.1875827555,-2.20502849353,-7.85202331207,-7.85202331207
63,0.0370742248152,-0.193910668652,-0.00801152965498,-0.205964385982,-0.210281844157,3101.0,-54.2217254854,-2.24020145301,-7.98141620286,-7.98141620286
64,0.0376720033514,-0.19403476801,-0.0081371486116,-0.209304353727,-0.209997642319,3151.0,-54.2564264194,-2.27532730054,-8.11084475694,-8.11084475694
65,0.0382697818876,-0.194160864203,-0.0082625963275,-0.212645258457,-0.209708827767,3201.0,-54.2916857126,-2.31040526537,-8.24030962057,-8.24030962057
66,0.0388675604238,-0.194288957795,-0.00838787004436,-0.215987116941,-0.209415397298,3251.0,-54.3275035232,-2.34543457621,-8.36981144356,-8.36981144356
67,0.03946533896,-0.194419049362,-0.00851296700195,-0.21932994604,-0.209117347651,3301.0,-54.3638800118,-2.38041446122,-8.49935087926,-8.49935087926
68,0.0400631174962,-0.194551139489,-0.00863788443804,-0.222673762709,-0.208814675513,3351.0,-54.400815342,-2.41534414805,-8.6289285847,-8.6289285847
69,0.0406608960324,-0.194685228771,-0.00876261958842,-0.226018583997,-0.208507377514,3401.0,-54.4383096805,-2.45022286374,-8.75854522062,-8.75854522062
70,0.0412586745686,-0.194821317813,-0.00888716968685,-0.229364427054,-0.20819545023,3451.0,-54.4763631965,-2.48504983481,-8.88820145152,-8.88820145152
71,0.0418564531048,-0.194959407233,-0.00901153196504,-0.232711309127,-0.207878890181,3501.0,-54.5149760621,-2.51982428717,-9.01789794577,-9.01789794577
72,0.042454231641,-0.195099497655,-0.00913570365257,-0.236059247563,-0.207557693832,3551.0,-54.5541484525,-2.55454544615,-9.14763537565,-9.14763537565
73,0.0430520101772,-0.195241589717,-0.00925968197693,-0.239408259815,-0.20723185759,3601.0,-54.5938805457,-2.58921253649,-9.27741441741,-9.27741441741
74,0.0436497887134,-0.195385684065,-0.0093834641634,-0.242758363438,-0.206901377809,3651.0,-54.6341725227,-2.62382478234,-9.40723575136,-9.40723575136
75,0.0442475672496,-0.195531781357,-0.00950704743512,-0.246109576093,-0.206566250783,3701.0,-54.6750245672,-2.6583814072,-9.53710006193,-9.53710006193
76,0.0448453457858,-0.195679882262,-0.00963042901294,-0.249461915552,-0.206226472752,3751.0,-54.7164368661,-2.69288163398,-9.66700803773,-9.66700803773
77,0.045443124322,-0.195829987457,-0.0097536061155,-0.252815399693,-0.205882039899,3801.0,-54.7584096093,-2.72732468493,-9.79696037164,-9.79696037164
78,0.0460409028582,-0.195982097633,-0.00987657595909,-0.256170046508,-0.205532948348,3851.0,-54.8009429895,-2.76170978168,-9.92695776085,-9.92695776085
79,0.0466386813944,-0.196136213489,-0.00999933575771,-0.259525874103,-0.205179194167,3901.0,-54.8440372026,-2.79603614519,-10.057000907,-10.057000907
80,0.0472364599306,-0.196292335738,-0.010121882723,-0.262882900698,-0.204820773366,3951.0,-54.8876924474,-2.83030299577,-10.187090516,-10.187090516
81,0.0478342384668,-0.1964504651,-0.0102442140641,-0.26624114463,-0.204457681897,4001.0,-54.9319089258,-2.86450955306,-10.3172272987,-10.3172272987
82,0.048432017003,-0.19661060231,-0.0103663269878,-0.269600624356,-0.204089915655,4051.0,-54.9766868428,-2.898655036,-10.4474119701,-10.4474119701
83,0.0490297955392,-0.196772748112,-0.0104882186984,-0.272961358454,-0.203717470474,4101.0,-55.0220264066,-2.93273866286,-10.5776452503,-10.5776452503
84,0.0496275740754,-0.19693690326,-0.0106098863978,-0.276323365624,-0.203340342132,4151.0,-55.0679278283,-2.96675965119,-10.7079278638,-10.7079278638
85,0.0502253526116,-0.197103068521,-0.0107313272852,-0.279686664692,-0.202958526347,4201.0,-55.1143913222,-3.00071721786,-10.8382605403,-10.8382605403
86,0.0508231311478,-0.197271244673,-0.0108525385572,-0.283051274609,-0.202572018776,4251.0,-55.1614171058,-3.03461057897,-10.968644014,-10.968644014
87,0.051420909684,-0.197441432505,-0.010973517408,-0.286417214457,-0.202180815019,4301.0,-55.2090053999,-3.06843894994,-11.0990790245,-11.0990790245
88,0.0520186882202,-0.197613632818,-0.0110942610288,-0.289784503446,-0.201784910615,4351.0,-55.2571564283,-3.10220154543,-11.2295663161,-11.2295663161
89,0.0526164667564,-0.197787846424,-0.0112147666086,-0.293153160921,-0.201384301042,4401.0,-55.3058704181,-3.13589757933,-11.3601066385,-11.3601066385
90,0.0532142452926,-0.197964074147,-0.0113350313332,-0.296523206361,-0.20097898172,4451.0,-55.3551475995,-3.1695262648,-11.4907007465,-11.4907007465
91,0.0538120238288,-0.198142316822,-0.011455052386,-0.29989465938,-0.200568948005,4501.0,-55.4049882063,-3.20308681421,-11.6213494003,-11.6213494003
92,0.054409802365,-0.198322575297,-0.0115748269474,-0.303267539732,-0.200154195194,4551.0,-55.4553924754,-3.23657843916,-11.7520533653,-11.7520533653
93,0.0550075809012,-0.198504850429,-0.011694352195,-0.306641867313,-0.199734718522,4601.0,-55.5063606468,-3.27000035045,-11.8828134125,-11.8828134125
94,0.0556053594374,-0.198689143091,-0.0118136253037,-0.31001766216,-0.199310513163,4651.0,-55.5578929643,-3.30335175808,-12.0136303183,-12.0136303183
95,0.0562031379736,-0.198875454166,-0.0119326434452,-0.313394944456,-0.198881574228,4701.0,-55.6099896746,-3.33663187124,-12.144504865,-12.144504865
96,0.0568009165098,-0.199063784548,-0.0120514037885,-0.31677373453,-0.198447896765,4751.0,-55.6626510281,-3.3698398983,-12.2754378402,-12.2754378402
97,0.057398695046,-0.199254135145,-0.0121699034995,-0.320154052862,-0.198009475761,4801.0,-55.7158772785,-3.4029750468,-12.4064300376,-12.4064300376
98,0.0579964735823,-0.199446506876,-0.0122881397412,-0.323535920081,-0.197566306139,4851.0,-55.7696686829,-3.43603652343,-12.5374822566,-12.5374822566
99,0.0585942521185,-0.199640900673,-0.0124061096734,-0.326919356972,-0.197118382757,4901.0,-55.824025502,-3.46902353402,-12.6685953026,-12.6685953026
100,0.0591920306547,-0.199837317482,-0.012523810453,-0.330304384473,-0.196665700412,4951.0,-55.8789479997,-3.50193528355,-12.7997699871,-12.7997699871
101,0.0597898091909,-0.200035758258,-0.0126412392335,-0.333691023684,-0.196208253835,5001.0,-55.9344364438,-3.53477097612,-12.9310071277,-12.9310071277
102,0.0603875877271,-0.200236223972,-0.0127583931655,-0.337079295862,-0.195746037694,5051.0,-55.9904911053,-3.56752981494,-13.062307548,-13.062307548
103,0.0609853662633,-0.200438715605,-0.0128752693962,-0.340469222427,-0.195279046589,5101.0,-56.047112259,-3.60021100232,-13.1936720783,-13.1936720783
104,0.0615831447995,-0.200643234154,-0.0129918650697,-0.343860824964,-0.194807275058,5151.0,-56.1043001831,-3.63281373968,-13.3251015548,-13.3251015548
105,0.0621809233357,-0.200849780626,-0.0131081773267,-0.347254125227,-0.194330717572,5201.0,-56.1620551596,-3.66533722751,-13.4565968207,-13.4565968207
106,0.0627787018719,-0.201058356043,-0.0132242033047,-0.350649145136,-0.193849368536,5251.0,-56.2203774741,-3.69778066535,-13.5881587254,-13.5881587254
107,0.0633764804081,-0.201268961439,-0.0133399401376,-0.354045906786,-0.193363222287,5301.0,-56.2792674157,-3.73014325184,-13.719788125,-13.719788125
108,0.0639742589443,-0.201481597861,-0.0134553849563,-0.357444432445,-0.192872273099,5351.0,-56.3387252775,-3.76242418465,-13.8514858825,-13.8514858825
109,0.0645720374805,-0.201696266372,-0.0135705348878,-0.360844744558,-0.192376515174,5401.0,-56.3987513562,-3.79462266046,-13.9832528677,-13.9832528677
110,0.0651698160167,-0.201912968045,-0.0136853870559,-0.364246865748,-0.191875942649,5451.0,-56.4593459522,-3.82673787502,-14.1150899572,-14.1150899572
111,0.0657675945529,-0.202131703968,-0.0137999385807,-0.367650818821,-0.191370549593,5501.0,-56.5205093697,-3.85876902308,-14.2469980348,-14.2469980348
112,0.0663653730891,-0.202352475244,-0.0139141865791,-0.371056626766,-0.190860330006,5551.0,-56.5822419169,-3.89071529836,-14.3789779914,-14.3789779914
113,0.0669631516253,-0.202575282987,-0.0140281281638,-0.374464312759,-0.190345277817,5601.0,-56.6445439057,-3.92257589363,-14.511030725,-14.511030725
114,0.0675609301615,-0.202800128328,-0.0141417604445,-0.377873900166,-0.189825386889,5651.0,-56.7074156519,-3.95435000059,-14.6431571412,-14.6431571412
115,0.0681587086977,-0.20302701241,-0.0142550805266,-0.381285412545,-0.189300651012,5701.0,-56.7708574752,-3.98603680993,-14.7753581527,-14.7753581527
116,0.0687564872339,-0.20325593639,-0.0143680855123,-0.384698873645,-0.188771063908,5751.0,-56.8348696995,-4.01763551129,-14.9076346801,-14.9076346801
117,0.0693542657701,-0.20348690144,-0.0144807724996,-0.388114307416,-0.188236619227,5801.0,-56.8994526523,-4.04914529327,-15.0399876512,-15.0399876512
118,0.0699520443063,-0.203719908748,-0.0145931385829,-0.391531738006,-0.187697310547,5851.0,-56.9646066654,-4.08056534338,-15.172418002,-15.172418002
119,0.0705498228425,-0.203954959512,-0.0147051808528,-0.394951189766,-0.187153131375,5901.0,-57.0303320746,-4.11189484806,-15.304926676,-15.304926676
120,0.0711476013787,-0.20419205495,-0.0148168963959,-0.39837268725,-0.186604075146,5951.0,-57.0966292196,-4.14313299267,-15.4375146248,-15.4375146248
121,0.0717453799149,-0.20443119629,-0.0149282822948,-0.401796255222,-0.186050135223,6001.0,-57.1634984445,-4.17427896145,-15.570182808,-15.570182808
122,0.0723431584511,-0.204672384779,-0.0150393356281,-0.405221918658,-0.185491304893,6051.0,-57.2309400975,-4.20533193753,-15.7029321933,-15.7029321933
123,0.0729409369873,-0.204915621675,-0.0151500534706,-0.408649702743,-0.184927577371,6101.0,-57.2989545307,-4.23629110292,-15.8357637569,-15.8357637569
124,0.0735387155235,-0.205160908255,-0.0152604328928,-0.412079632882,-0.184358945798,6151.0,-57.3675421008,-4.26715563847,-15.9686784832,-15.9686784832
125,0.0741364940597,-0.205408245808,-0.015370470961,-0.415511734699,-0.183785403239,6201.0,-57.4367031686,-4.29792472391,-16.1016773652,-16.1016773652
126,0.0747342725959,-0.20565763564,-0.0154801647377,-0.418946034039,-0.183206942685,6251.0,-57.5064380992,-4.32859753777,-16.2347614042,-16.2347614042
127,0.0753320511321,-0.205909079072,-0.0155895112808,-0.422382556972,-0.18262355705,6301.0,-57.576747262,-4.35917325742,-16.3679316108,-16.3679316108
128,0.0759298296683,-0.206162577442,-0.0156985076441,-0.425821329797,-0.182035239172,6351.0,-57.647631031,-4.38965105904,-16.5011890039,-16.5011890039
129,0.0765276082045,-0.206418132102,-0.0158071508772,-0.429262379044,-0.181441981811,6401.0,-57.7190897842,-4.4200301176,-16.6345346116,-16.6345346116
130,0.0771253867407,-0.206675744421,-0.0159154380251,-0.432705731478,-0.180843777652,6451.0,-57.7911239045,-4.45030960686,-16.7679694711,-16.7679694711
131,0.0777231652769,-0.206935415783,-0.0160233661287,-0.436151414099,-0.180240619298,6501.0,-57.8637337789,-4.48048869935,-16.9014946287,-16.9014946287
